0,1,2,3,4,5,6,7,8,9,10,11,12,13,14,15,16,17,18,19,20,21,22,23,24,25,26,27,28,29,30,31
-0.751789,-0.799922,-0.814302,-0.814173,-0.824296,-0.818934,-0.827055,-0.824367,-0.798877,-0.837405,-0.817246,-0.825758,-0.825823,-0.814992,-0.786372,-0.743315,-0.770217,-0.809475,-0.827473,-0.828864,-0.820818,-0.838788,-0.824897,-0.832519,-0.845478,-0.823261,-0.823733,-0.808971,-0.826873,-0.819774,-0.813711,-0.785394
-0.809927,-0.834837,-0.821413,-0.844218,-0.843275,-0.842325,-0.832264,-0.841244,-0.832136,-0.849959,-0.845477,-0.845762,-0.844411,-0.839800,-0.818990,-0.787766,-0.819824,-0.829199,-0.844468,-0.851213,-0.841706,-0.850967,-0.853501,-0.846334,-0.852644,-0.842059,-0.843181,-0.842534,-0.846056,-0.843655,-0.831242,-0.826110
-0.789481,-0.825583,-0.823731,-0.837194,-0.837124,-0.838099,-0.832278,-0.835343,-0.839221,-0.854412,-0.844465,-0.842037,-0.839928,-0.833515,-0.814218,-0.773081,-0.797051,-0.816575,-0.834651,-0.829942,-0.820007,-0.844754,-0.843866,-0.843286,-0.851867,-0.837363,-0.843039,-0.828243,-0.836381,-0.831293,-0.811513,-0.784459
-0.780370,-0.796661,-0.791734,-0.809852,-0.794123,-0.808578,-0.792311,-0.793562,-0.765695,-0.800810,-0.803732,-0.802068,-0.796480,-0.800185,-0.758843,-0.730019,-0.776634,-0.778071,-0.801306,-0.795149,-0.791628,-0.803228,-0.805679,-0.806467,-0.814166,-0.814174,-0.794428,-0.812905,-0.790174,-0.781703,-0.743403,-0.698073
-0.793757,-0.831645,-0.804939,-0.833498,-0.828751,-0.823628,-0.823261,-0.826986,-0.822465,-0.839142,-0.840279,-0.834617,-0.827036,-0.816972,-0.773702,-0.728967,-0.789236,-0.813052,-0.832894,-0.837997,-0.835080,-0.835515,-0.836970,-0.836727,-0.842779,-0.829788,-0.832701,-0.827157,-0.827627,-0.817068,-0.776313,-0.697265
-0.750908,-0.797609,-0.782548,-0.797685,-0.802962,-0.800261,-0.792729,-0.802661,-0.801724,-0.804280,-0.807815,-0.809236,-0.793122,-0.773415,-0.723636,-0.667587,-0.743169,-0.785001,-0.790029,-0.806319,-0.805967,-0.806254,-0.814828,-0.815519,-0.814737,-0.797917,-0.807167,-0.793042,-0.790948,-0.784484,-0.730760,-0.646478
-0.783025,-0.826613,-0.798647,-0.833184,-0.822275,-0.816492,-0.814564,-0.816271,-0.811291,-0.830670,-0.833540,-0.825213,-0.819968,-0.812527,-0.770806,-0.716494,-0.779174,-0.812907,-0.828745,-0.831630,-0.828352,-0.829387,-0.831678,-0.824285,-0.835933,-0.818689,-0.821990,-0.826696,-0.821873,-0.816372,-0.784986,-0.717159
-0.767787,-0.796622,-0.755880,-0.792782,-0.772209,-0.778849,-0.771596,-0.756953,-0.779350,-0.796237,-0.791639,-0.789505,-0.774776,-0.782342,-0.743044,-0.705901,-0.758001,-0.785430,-0.793941,-0.800185,-0.790703,-0.795006,-0.801634,-0.783476,-0.790029,-0.779514,-0.791563,-0.777806,-0.785132,-0.770722,-0.767870,-0.715110
-0.775073,-0.818820,-0.792518,-0.821500,-0.813278,-0.815349,-0.809558,-0.809903,-0.809583,-0.823351,-0.826757,-0.824473,-0.813592,-0.808396,-0.766666,-0.713131,-0.772323,-0.805431,-0.822505,-0.825099,-0.825371,-0.825943,-0.826170,-0.823149,-0.829661,-0.810432,-0.825769,-0.813622,-0.820408,-0.812736,-0.782699,-0.722010
-0.773059,-0.821892,-0.798372,-0.823761,-0.820378,-0.819338,-0.814202,-0.813961,-0.808259,-0.827477,-0.831199,-0.828965,-0.818220,-0.807633,-0.770663,-0.712619,-0.772200,-0.807338,-0.823128,-0.827693,-0.830903,-0.830137,-0.830833,-0.829927,-0.833757,-0.821032,-0.828548,-0.819506,-0.820950,-0.813089,-0.785795,-0.720463
-0.768746,-0.816309,-0.797197,-0.818568,-0.815741,-0.817047,-0.811062,-0.808883,-0.809534,-0.825640,-0.828986,-0.826102,-0.814497,-0.803719,-0.765826,-0.708887,-0.767547,-0.802375,-0.818672,-0.821302,-0.825711,-0.826971,-0.824197,-0.822082,-0.827404,-0.812561,-0.820797,-0.816421,-0.816470,-0.811651,-0.780939,-0.709582
-0.749515,-0.809197,-0.790430,-0.812828,-0.811666,-0.812322,-0.807189,-0.807191,-0.804824,-0.821676,-0.823925,-0.821080,-0.807598,-0.794428,-0.758251,-0.697021,-0.745421,-0.796971,-0.812130,-0.816134,-0.817798,-0.821001,-0.819926,-0.819220,-0.821678,-0.809803,-0.813855,-0.810390,-0.810000,-0.802310,-0.771994,-0.696245
-0.762642,-0.812598,-0.794492,-0.812702,-0.812702,-0.814839,-0.805772,-0.806286,-0.807707,-0.823613,-0.821817,-0.821930,-0.808120,-0.801457,-0.759317,-0.699775,-0.749306,-0.797840,-0.812077,-0.815956,-0.821301,-0.819497,-0.820119,-0.820311,-0.824093,-0.804431,-0.816050,-0.812472,-0.812071,-0.805901,-0.773369,-0.694242
-0.759880,-0.809515,-0.791288,-0.810875,-0.810815,-0.808398,-0.805611,-0.805735,-0.803377,-0.820666,-0.821113,-0.820088,-0.806007,-0.799458,-0.755231,-0.695932,-0.751236,-0.795811,-0.811110,-0.811040,-0.816845,-0.818795,-0.818858,-0.818689,-0.822636,-0.810359,-0.816066,-0.811309,-0.807253,-0.802801,-0.767468,-0.690972
-0.754732,-0.806064,-0.787292,-0.804656,-0.806280,-0.810232,-0.801402,-0.803157,-0.805751,-0.818679,-0.817361,-0.817733,-0.802730,-0.797367,-0.749020,-0.689936,-0.745631,-0.793037,-0.808760,-0.812396,-0.815643,-0.815063,-0.817625,-0.812625,-0.821466,-0.808490,-0.810509,-0.805214,-0.807312,-0.798527,-0.765648,-0.689652
-0.760698,-0.810917,-0.793172,-0.812677,-0.809953,-0.812964,-0.806176,-0.806270,-0.804258,-0.821657,-0.822061,-0.822814,-0.804934,-0.800383,-0.757393,-0.697390,-0.756312,-0.796536,-0.813142,-0.811996,-0.818343,-0.819360,-0.820861,-0.817639,-0.824593,-0.812869,-0.816152,-0.813594,-0.809709,-0.804487,-0.771194,-0.696590
-0.766689,-0.810833,-0.787039,-0.815938,-0.814116,-0.813158,-0.810106,-0.813290,-0.807759,-0.826310,-0.822146,-0.822621,-0.812375,-0.803926,-0.757510,-0.698903,-0.758818,-0.802776,-0.812985,-0.814109,-0.821014,-0.821029,-0.820909,-0.819383,-0.827480,-0.815805,-0.819435,-0.816864,-0.814635,-0.806429,-0.776273,-0.697362
-0.764963,-0.805179,-0.801627,-0.807567,-0.809442,-0.811635,-0.805925,-0.805432,-0.803362,-0.821737,-0.821720,-0.823139,-0.805885,-0.802281,-0.760819,-0.702227,-0.752371,-0.800370,-0.813339,-0.813772,-0.817592,-0.819050,-0.817308,-0.814618,-0.818132,-0.806633,-0.812552,-0.812413,-0.812352,-0.803756,-0.771164,-0.692832
-0.765576,-0.807934,-0.799641,-0.807784,-0.810111,-0.810307,-0.804253,-0.805136,-0.788985,-0.816727,-0.816421,-0.819862,-0.804289,-0.799028,-0.758425,-0.699918,-0.747020,-0.796965,-0.808208,-0.811210,-0.815201,-0.813932,-0.816317,-0.815913,-0.818420,-0.810091,-0.810027,-0.808778,-0.810796,-0.800017,-0.772211,-0.692620
-0.762438,-0.805981,-0.796111,-0.803959,-0.805653,-0.804342,-0.803315,-0.802305,-0.795749,-0.815570,-0.819615,-0.817916,-0.800014,-0.796764,-0.754059,-0.695575,-0.746508,-0.795343,-0.805230,-0.811297,-0.814349,-0.812695,-0.813013,-0.815760,-0.812365,-0.805495,-0.804485,-0.806533,-0.805455,-0.799195,-0.770060,-0.692537
-0.747308,-0.798596,-0.792433,-0.794870,-0.798957,-0.800929,-0.795764,-0.795598,-0.792851,-0.807601,-0.806938,-0.807795,-0.793517,-0.788265,-0.740148,-0.672486,-0.733673,-0.786547,-0.795944,-0.802934,-0.804535,-0.803561,-0.805191,-0.806882,-0.808074,-0.793588,-0.800678,-0.800437,-0.797403,-0.792747,-0.762862,-0.689945
-0.736317,-0.780619,-0.774704,-0.777683,-0.789236,-0.787918,-0.787754,-0.781516,-0.766415,-0.789981,-0.794026,-0.802283,-0.787705,-0.772371,-0.738847,-0.692667,-0.732269,-0.773611,-0.787645,-0.779744,-0.781816,-0.789960,-0.782211,-0.787915,-0.798692,-0.788295,-0.790166,-0.786296,-0.789317,-0.782691,-0.754424,-0.685627
-0.780245,-0.807776,-0.801916,-0.799441,-0.804020,-0.806906,-0.804451,-0.800797,-0.802339,-0.814108,-0.818766,-0.815565,-0.802562,-0.795298,-0.759346,-0.714333,-0.752711,-0.793867,-0.805294,-0.812471,-0.812641,-0.807763,-0.807866,-0.809819,-0.813396,-0.803006,-0.799557,-0.804262,-0.806038,-0.798669,-0.772979,-0.693611
-0.778884,-0.810983,-0.799914,-0.804643,-0.806752,-0.806422,-0.804965,-0.802663,-0.801064,-0.812330,-0.815544,-0.815452,-0.803915,-0.796873,-0.760201,-0.715697,-0.754218,-0.796025,-0.806976,-0.811463,-0.814502,-0.810857,-0.812316,-0.812576,-0.813832,-0.804557,-0.803043,-0.802869,-0.805117,-0.799525,-0.772972,-0.692162
-0.777073,-0.807861,-0.801619,-0.803022,-0.805372,-0.804630,-0.803780,-0.799904,-0.802402,-0.811528,-0.809623,-0.812369,-0.800847,-0.794293,-0.756697,-0.711565,-0.746190,-0.790717,-0.802451,-0.806086,-0.808999,-0.806599,-0.808830,-0.809067,-0.811193,-0.799539,-0.801639,-0.801845,-0.803379,-0.795500,-0.769868,-0.687909
-0.774716,-0.803659,-0.793618,-0.801633,-0.804272,-0.803730,-0.802886,-0.798580,-0.801661,-0.809906,-0.811659,-0.810976,-0.798274,-0.792549,-0.754528,-0.710961,-0.747691,-0.792434,-0.804272,-0.806337,-0.810836,-0.808480,-0.809489,-0.808884,-0.810845,-0.800363,-0.798083,-0.802189,-0.801963,-0.796267,-0.769548,-0.690035
-0.741243,-0.793995,-0.795579,-0.798824,-0.797406,-0.800810,-0.800324,-0.794417,-0.794912,-0.804976,-0.806536,-0.805854,-0.792427,-0.787128,-0.744629,-0.689506,-0.706846,-0.774881,-0.794996,-0.797628,-0.803428,-0.804662,-0.797471,-0.803974,-0.807285,-0.794182,-0.788461,-0.793525,-0.794480,-0.788540,-0.758134,-0.661980
-0.768809,-0.801893,-0.786181,-0.794603,-0.800737,-0.799827,-0.802840,-0.797078,-0.801147,-0.804080,-0.800150,-0.811011,-0.798444,-0.789565,-0.742726,-0.695006,-0.751176,-0.797243,-0.796001,-0.798958,-0.802232,-0.797000,-0.811392,-0.807998,-0.806378,-0.799899,-0.791340,-0.794790,-0.797503,-0.788141,-0.766329,-0.674985
-0.778865,-0.800522,-0.791490,-0.802649,-0.805290,-0.804129,-0.800728,-0.797800,-0.790140,-0.806110,-0.808865,-0.815669,-0.800813,-0.797808,-0.767724,-0.723555,-0.758247,-0.796121,-0.801961,-0.802462,-0.809950,-0.800608,-0.793439,-0.805867,-0.802204,-0.796729,-0.803751,-0.800767,-0.805195,-0.794036,-0.775840,-0.686991
-0.802650,-0.827868,-0.816185,-0.820371,-0.824698,-0.824515,-0.825076,-0.819574,-0.822294,-0.827490,-0.829768,-0.834214,-0.819730,-0.812697,-0.776466,-0.729196,-0.778393,-0.819238,-0.823072,-0.824177,-0.828438,-0.823039,-0.827822,-0.830046,-0.828363,-0.820219,-0.819742,-0.823891,-0.821545,-0.814039,-0.789822,-0.705805
-0.803008,-0.821748,-0.808309,-0.817133,-0.820477,-0.814779,-0.819628,-0.814029,-0.817455,-0.821707,-0.825427,-0.827523,-0.814719,-0.807209,-0.775632,-0.727178,-0.767161,-0.805438,-0.817610,-0.810296,-0.824253,-0.817508,-0.819726,-0.822336,-0.822712,-0.813485,-0.817318,-0.818354,-0.814534,-0.802994,-0.771482,-0.674141
-0.795373,-0.812064,-0.783606,-0.798674,-0.803583,-0.804776,-0.808795,-0.800509,-0.795130,-0.806037,-0.815208,-0.807455,-0.792804,-0.790137,-0.734881,-0.694798,-0.756434,-0.803665,-0.806797,-0.801683,-0.806220,-0.803949,-0.811069,-0.811907,-0.810747,-0.803125,-0.794441,-0.796820,-0.796603,-0.775841,-0.735324,-0.607507
-0.830617,-0.858558,-0.843504,-0.849357,-0.855685,-0.852530,-0.857161,-0.848851,-0.849770,-0.858996,-0.858276,-0.861044,-0.852723,-0.852126,-0.842538,-0.817092,-0.798554,-0.846517,-0.853108,-0.852352,-0.861052,-0.855206,-0.856671,-0.854016,-0.859269,-0.844773,-0.853620,-0.856582,-0.857090,-0.849503,-0.844565,-0.783891
-0.811249,-0.852169,-0.840385,-0.853677,-0.853097,-0.853714,-0.858542,-0.852420,-0.848070,-0.860767,-0.860638,-0.861949,-0.855048,-0.853774,-0.843278,-0.803604,-0.793415,-0.843430,-0.854285,-0.851757,-0.860687,-0.857424,-0.856171,-0.858198,-0.862486,-0.855736,-0.850130,-0.854691,-0.856570,-0.852699,-0.841397,-0.791976
-0.843066,-0.856157,-0.839866,-0.850113,-0.856800,-0.854090,-0.851236,-0.848155,-0.855872,-0.862606,-0.862739,-0.860119,-0.860554,-0.862427,-0.856386,-0.832987,-0.824778,-0.848289,-0.853208,-0.856070,-0.852819,-0.853616,-0.851794,-0.855068,-0.862041,-0.850111,-0.850248,-0.852652,-0.856644,-0.853913,-0.857047,-0.819028
-0.814318,-0.805587,-0.801203,-0.802553,-0.804218,-0.821520,-0.809273,-0.793103,-0.811303,-0.806115,-0.812274,-0.811593,-0.804292,-0.809051,-0.807964,-0.797756,-0.789909,-0.797239,-0.811188,-0.811007,-0.805922,-0.803666,-0.811061,-0.806124,-0.811325,-0.795641,-0.788884,-0.793360,-0.815965,-0.809044,-0.805712,-0.764522
-0.848655,-0.865426,-0.846767,-0.860868,-0.865128,-0.859218,-0.859039,-0.861032,-0.857457,-0.865679,-0.864735,-0.867579,-0.867756,-0.865221,-0.863971,-0.850423,-0.834306,-0.859657,-0.861398,-0.862628,-0.860004,-0.857578,-0.858974,-0.865839,-0.868426,-0.862812,-0.861603,-0.861087,-0.864200,-0.861417,-0.866510,-0.832398
-0.847758,-0.861796,-0.848288,-0.857975,-0.860359,-0.855729,-0.857095,-0.857262,-0.853242,-0.869078,-0.865277,-0.865689,-0.859993,-0.860165,-0.864875,-0.850370,-0.820186,-0.860527,-0.862090,-0.860005,-0.857165,-0.861877,-0.858872,-0.862288,-0.862954,-0.855937,-0.859480,-0.865940,-0.861581,-0.857656,-0.865581,-0.825767
-0.839108,-0.865358,-0.834866,-0.867746,-0.861856,-0.866898,-0.863172,-0.862460,-0.855974,-0.869730,-0.864931,-0.867492,-0.868355,-0.862352,-0.863364,-0.847131,-0.830254,-0.863138,-0.863286,-0.866573,-0.862086,-0.866072,-0.861694,-0.872599,-0.876768,-0.869932,-0.866574,-0.867288,-0.865735,-0.858205,-0.862798,-0.829961
-0.807644,-0.839444,-0.840354,-0.856322,-0.847331,-0.836477,-0.841274,-0.841753,-0.843887,-0.851557,-0.850631,-0.855058,-0.843974,-0.847135,-0.845723,-0.842954,-0.779290,-0.832787,-0.843232,-0.836559,-0.849268,-0.846222,-0.849014,-0.861790,-0.855962,-0.852481,-0.842281,-0.838795,-0.846025,-0.843540,-0.852364,-0.830142
-0.851621,-0.861994,-0.854219,-0.863178,-0.861481,-0.859523,-0.862310,-0.863948,-0.846700,-0.868794,-0.872780,-0.867048,-0.867886,-0.862531,-0.871486,-0.862234,-0.839894,-0.859877,-0.864501,-0.861648,-0.863051,-0.867339,-0.863793,-0.873680,-0.873010,-0.868139,-0.862960,-0.868006,-0.865941,-0.861568,-0.863628,-0.846002
-0.852832,-0.861322,-0.853262,-0.867329,-0.863608,-0.862065,-0.864616,-0.867227,-0.850998,-0.867785,-0.873141,-0.871848,-0.870496,-0.862883,-0.871143,-0.863734,-0.835828,-0.852704,-0.866782,-0.862511,-0.863681,-0.865552,-0.866555,-0.874444,-0.868278,-0.870847,-0.859741,-0.859498,-0.864419,-0.861362,-0.864308,-0.850516
-0.844906,-0.851533,-0.841078,-0.853574,-0.856346,-0.845471,-0.858459,-0.856979,-0.852231,-0.861402,-0.863403,-0.867189,-0.862001,-0.858047,-0.865955,-0.852175,-0.811732,-0.838354,-0.856149,-0.854889,-0.858241,-0.862363,-0.863540,-0.865552,-0.863638,-0.863137,-0.850961,-0.850369,-0.854493,-0.852735,-0.856072,-0.836966
-0.840361,-0.850080,-0.832351,-0.862183,-0.854269,-0.857061,-0.854908,-0.856888,-0.850648,-0.865921,-0.862300,-0.863901,-0.859608,-0.857618,-0.860065,-0.846149,-0.821648,-0.846030,-0.861575,-0.849388,-0.856755,-0.861913,-0.863087,-0.867926,-0.862713,-0.860120,-0.856946,-0.860064,-0.856282,-0.852569,-0.855714,-0.830414
-0.846532,-0.854211,-0.838791,-0.862274,-0.856221,-0.855978,-0.859664,-0.852735,-0.855160,-0.866659,-0.863483,-0.861004,-0.864631,-0.856767,-0.864163,-0.851890,-0.828003,-0.842716,-0.858762,-0.847827,-0.857012,-0.861817,-0.853860,-0.866071,-0.864248,-0.857926,-0.861948,-0.855358,-0.858609,-0.852695,-0.857953,-0.837491
-0.853666,-0.863824,-0.836598,-0.876228,-0.870855,-0.871905,-0.873275,-0.871944,-0.859924,-0.876736,-0.879609,-0.876016,-0.876897,-0.867723,-0.870896,-0.860096,-0.838429,-0.857813,-0.874397,-0.864180,-0.866463,-0.873158,-0.870954,-0.879877,-0.885962,-0.881127,-0.866455,-0.865513,-0.868847,-0.863607,-0.867549,-0.849775
-0.827430,-0.845286,-0.820777,-0.860863,-0.854940,-0.846067,-0.856045,-0.864192,-0.843958,-0.868323,-0.853239,-0.863440,-0.861641,-0.854093,-0.863870,-0.859380,-0.817098,-0.841166,-0.857696,-0.845898,-0.856917,-0.860220,-0.862590,-0.859217,-0.872566,-0.860484,-0.860711,-0.842795,-0.848282,-0.859103,-0.854573,-0.822390
-0.838382,-0.844758,-0.840787,-0.856906,-0.857162,-0.859559,-0.856773,-0.861497,-0.854628,-0.865286,-0.864640,-0.863981,-0.863681,-0.848949,-0.862439,-0.846984,-0.822138,-0.842532,-0.856779,-0.857249,-0.852890,-0.866271,-0.858471,-0.865322,-0.879076,-0.866194,-0.858139,-0.857382,-0.858670,-0.858465,-0.860111,-0.835836
-0.859423,-0.875017,-0.858839,-0.885946,-0.882759,-0.881516,-0.879308,-0.887899,-0.870916,-0.887228,-0.886434,-0.889278,-0.890315,-0.884464,-0.883064,-0.872324,-0.846505,-0.865357,-0.885683,-0.876072,-0.878394,-0.884877,-0.884766,-0.893875,-0.890083,-0.894475,-0.877764,-0.874388,-0.884937,-0.879078,-0.877278,-0.863969
-0.855992,-0.870701,-0.853271,-0.888094,-0.878124,-0.878215,-0.876295,-0.884904,-0.862143,-0.882962,-0.883077,-0.881873,-0.882058,-0.873765,-0.879633,-0.871624,-0.847332,-0.866071,-0.884234,-0.873229,-0.879000,-0.888821,-0.883027,-0.887796,-0.889346,-0.886433,-0.877745,-0.872577,-0.881359,-0.872790,-0.878741,-0.857170
-0.845441,-0.868414,-0.849194,-0.886761,-0.873362,-0.876847,-0.876014,-0.884497,-0.862180,-0.884691,-0.881199,-0.882585,-0.885598,-0.877953,-0.880390,-0.867961,-0.839594,-0.861366,-0.880471,-0.870997,-0.873459,-0.884404,-0.881784,-0.888046,-0.888702,-0.892210,-0.881500,-0.874771,-0.879262,-0.873265,-0.873037,-0.861519
-0.856183,-0.875988,-0.866764,-0.895116,-0.887253,-0.884690,-0.883804,-0.890422,-0.875080,-0.893764,-0.889425,-0.893339,-0.888734,-0.885634,-0.888259,-0.872782,-0.845925,-0.870011,-0.885751,-0.880997,-0.884015,-0.893907,-0.889626,-0.896440,-0.897474,-0.893703,-0.892264,-0.880881,-0.886318,-0.883120,-0.884042,-0.865750
-0.854399,-0.875289,-0.858532,-0.892757,-0.882872,-0.883257,-0.882162,-0.889439,-0.872242,-0.890394,-0.887230,-0.891199,-0.886921,-0.883929,-0.884782,-0.872774,-0.846898,-0.868095,-0.885637,-0.878134,-0.883793,-0.892560,-0.889119,-0.895315,-0.892534,-0.894460,-0.888683,-0.877248,-0.884401,-0.882507,-0.882043,-0.862512
-0.850620,-0.875012,-0.860059,-0.890318,-0.883993,-0.883409,-0.882057,-0.889105,-0.870574,-0.890291,-0.885302,-0.889927,-0.885221,-0.882021,-0.886318,-0.870014,-0.847683,-0.868377,-0.884845,-0.878864,-0.882371,-0.892321,-0.888203,-0.895316,-0.896218,-0.895934,-0.886737,-0.879056,-0.883935,-0.882296,-0.881737,-0.860702
-0.849152,-0.873909,-0.866387,-0.890910,-0.880872,-0.883080,-0.880495,-0.887362,-0.868272,-0.888224,-0.885494,-0.890094,-0.883563,-0.881576,-0.885589,-0.871837,-0.847233,-0.867888,-0.883609,-0.874886,-0.881146,-0.889148,-0.887503,-0.895714,-0.895748,-0.894998,-0.886997,-0.878795,-0.883927,-0.880671,-0.881313,-0.857151
-0.840123,-0.861822,-0.853712,-0.878040,-0.865377,-0.864082,-0.871068,-0.872298,-0.857612,-0.870555,-0.868572,-0.873783,-0.870695,-0.868211,-0.871736,-0.856566,-0.836482,-0.854319,-0.870486,-0.862969,-0.867733,-0.876077,-0.872602,-0.880161,-0.883079,-0.885498,-0.872034,-0.858676,-0.866506,-0.869107,-0.865020,-0.845101
-0.833704,-0.856678,-0.841023,-0.862794,-0.861540,-0.852417,-0.870663,-0.868836,-0.841050,-0.862071,-0.860817,-0.858651,-0.860379,-0.857397,-0.857906,-0.854272,-0.829276,-0.845209,-0.853637,-0.836520,-0.844032,-0.862356,-0.855101,-0.867041,-0.871011,-0.867512,-0.870242,-0.843618,-0.858329,-0.854565,-0.852266,-0.841115
-0.848399,-0.868394,-0.857022,-0.877038,-0.873685,-0.869076,-0.869770,-0.883604,-0.861915,-0.876455,-0.879488,-0.878711,-0.874512,-0.873117,-0.873917,-0.869213,-0.832438,-0.855854,-0.869669,-0.862972,-0.868988,-0.880209,-0.874936,-0.881101,-0.884069,-0.873449,-0.874590,-0.868572,-0.874858,-0.870613,-0.868750,-0.860722
-0.848073,-0.872506,-0.860517,-0.880301,-0.876791,-0.875075,-0.874512,-0.886291,-0.857469,-0.879167,-0.885219,-0.883071,-0.881627,-0.877609,-0.880146,-0.867948,-0.836709,-0.862731,-0.875686,-0.875316,-0.870730,-0.884278,-0.879005,-0.887791,-0.890847,-0.885302,-0.886997,-0.872370,-0.881366,-0.879422,-0.872792,-0.859132
-0.851555,-0.872848,-0.868358,-0.888350,-0.883555,-0.883935,-0.888194,-0.892809,-0.867933,-0.882495,-0.884824,-0.884155,-0.882991,-0.881973,-0.876917,-0.859876,-0.823458,-0.865595,-0.886218,-0.879273,-0.878139,-0.886159,-0.884801,-0.888525,-0.888852,-0.892437,-0.884917,-0.879106,-0.883996,-0.884544,-0.879315,-0.873257
-0.807782,-0.859333,-0.852868,-0.874235,-0.874953,-0.873940,-0.879771,-0.886116,-0.856271,-0.875400,-0.880526,-0.877720,-0.870652,-0.870553,-0.845811,-0.807892,-0.785832,-0.847628,-0.869644,-0.870660,-0.873769,-0.882222,-0.879184,-0.880822,-0.885803,-0.882655,-0.873070,-0.869611,-0.875083,-0.869267,-0.833246,-0.787091
-0.593745,-0.726766,-0.766717,-0.760295,-0.787620,-0.786357,-0.797413,-0.792596,-0.778117,-0.796970,-0.780662,-0.769996,-0.756452,-0.717492,-0.602483,-0.448431,-0.599486,-0.742079,-0.780651,-0.775114,-0.779433,-0.802629,-0.786427,-0.791079,-0.798341,-0.806650,-0.777065,-0.775920,-0.752159,-0.739865,-0.656049,-0.517825
-0.678904,-0.775331,-0.780605,-0.788293,-0.794174,-0.801059,-0.791590,-0.807150,-0.783425,-0.805946,-0.802744,-0.804232,-0.790858,-0.752180,-0.652177,-0.517765,-0.689562,-0.766230,-0.800694,-0.790230,-0.791935,-0.808387,-0.809606,-0.807473,-0.797490,-0.809763,-0.795589,-0.782623,-0.782198,-0.758189,-0.682564,-0.576494
-0.740840,-0.798067,-0.811951,-0.813505,-0.821789,-0.817265,-0.820828,-0.829036,-0.805964,-0.818278,-0.816491,-0.815025,-0.807050,-0.798492,-0.744632,-0.675038,-0.734560,-0.801443,-0.815944,-0.812248,-0.815937,-0.824246,-0.817374,-0.826266,-0.826146,-0.822981,-0.819515,-0.813233,-0.811626,-0.807287,-0.762518,-0.693275
-0.719855,-0.760244,-0.769528,-0.777911,-0.784294,-0.781872,-0.799148,-0.802389,-0.781731,-0.792861,-0.799465,-0.798082,-0.794190,-0.774485,-0.719442,-0.649415,-0.701613,-0.768172,-0.783499,-0.795977,-0.786631,-0.778135,-0.793604,-0.792017,-0.798384,-0.802086,-0.789319,-0.777373,-0.792982,-0.786616,-0.744697,-0.678323
-0.736762,-0.792931,-0.796937,-0.810136,-0.818230,-0.823732,-0.829734,-0.833826,-0.805928,-0.823549,-0.819234,-0.820089,-0.812318,-0.796839,-0.735934,-0.664725,-0.727348,-0.791844,-0.813642,-0.815178,-0.817360,-0.826738,-0.822011,-0.829127,-0.825895,-0.837608,-0.822269,-0.801042,-0.818583,-0.804439,-0.760618,-0.687592
-0.735165,-0.794502,-0.803058,-0.808949,-0.822890,-0.816020,-0.828061,-0.830090,-0.791571,-0.819103,-0.814192,-0.816039,-0.807095,-0.798312,-0.738930,-0.666138,-0.728488,-0.798622,-0.814862,-0.813743,-0.814273,-0.821894,-0.820504,-0.823819,-0.830609,-0.832252,-0.823788,-0.808237,-0.814818,-0.801213,-0.764112,-0.688252
-0.722985,-0.796059,-0.798266,-0.803813,-0.818240,-0.820486,-0.826087,-0.824702,-0.809579,-0.818997,-0.812876,-0.812586,-0.808077,-0.790005,-0.719694,-0.624443,-0.730199,-0.799958,-0.812843,-0.817233,-0.811687,-0.825232,-0.815657,-0.819222,-0.825615,-0.827327,-0.818879,-0.808578,-0.811218,-0.800005,-0.751130,-0.676262
-0.723419,-0.777184,-0.783015,-0.787612,-0.795071,-0.797142,-0.809855,-0.805957,-0.794309,-0.805860,-0.790053,-0.787830,-0.793705,-0.783284,-0.736144,-0.650771,-0.743685,-0.779319,-0.789243,-0.779812,-0.786114,-0.786464,-0.791245,-0.791321,-0.798243,-0.794399,-0.795341,-0.777438,-0.784076,-0.778984,-0.760247,-0.687664
-0.716089,-0.784886,-0.776120,-0.768776,-0.783200,-0.779757,-0.788176,-0.782225,-0.792966,-0.785903,-0.777761,-0.782369,-0.794774,-0.787576,-0.726563,-0.602955,-0.708668,-0.784965,-0.780928,-0.779425,-0.765176,-0.771325,-0.767327,-0.776093,-0.782283,-0.776565,-0.784809,-0.769866,-0.795491,-0.788431,-0.756144,-0.603709
-0.612044,-0.681255,-0.671557,-0.695232,-0.697586,-0.681612,-0.699056,-0.706331,-0.715004,-0.711666,-0.697105,-0.699082,-0.699527,-0.702230,-0.677011,-0.627931,-0.640778,-0.666766,-0.676574,-0.691888,-0.695848,-0.703558,-0.694481,-0.699064,-0.709587,-0.701997,-0.709877,-0.703438,-0.712056,-0.692544,-0.701753,-0.617740
-0.658570,-0.737315,-0.763256,-0.759540,-0.766957,-0.765441,-0.772373,-0.759903,-0.775999,-0.771958,-0.752346,-0.761129,-0.748763,-0.729536,-0.666993,-0.588242,-0.640958,-0.732129,-0.743254,-0.756273,-0.762442,-0.761991,-0.755585,-0.761226,-0.771331,-0.769856,-0.765655,-0.750932,-0.758835,-0.738720,-0.681482,-0.573958
-0.677424,-0.772002,-0.779912,-0.787112,-0.798220,-0.791634,-0.805148,-0.805903,-0.794188,-0.806765,-0.793308,-0.796648,-0.789812,-0.774934,-0.692185,-0.586653,-0.659336,-0.769781,-0.784573,-0.789669,-0.791291,-0.796262,-0.793546,-0.799814,-0.806221,-0.804687,-0.802685,-0.791705,-0.792327,-0.775788,-0.718562,-0.584614
-0.664313,-0.757914,-0.769461,-0.769875,-0.780800,-0.772320,-0.788787,-0.792757,-0.780143,-0.788620,-0.773891,-0.779015,-0.773166,-0.760069,-0.681814,-0.585831,-0.647149,-0.752707,-0.768752,-0.773272,-0.775527,-0.781153,-0.779680,-0.784451,-0.792018,-0.787859,-0.787325,-0.773708,-0.777659,-0.759021,-0.707977,-0.578161
-0.646335,-0.743288,-0.749173,-0.761482,-0.765758,-0.764175,-0.767100,-0.780852,-0.770865,-0.779433,-0.758800,-0.766277,-0.759179,-0.750641,-0.668847,-0.568761,-0.628480,-0.728423,-0.753619,-0.755826,-0.773490,-0.770110,-0.770222,-0.771896,-0.778477,-0.774960,-0.770757,-0.761579,-0.763201,-0.746447,-0.687925,-0.554027
-0.604004,-0.738270,-0.759980,-0.758980,-0.771940,-0.765731,-0.774602,-0.783534,-0.778395,-0.778575,-0.765777,-0.770401,-0.758676,-0.747604,-0.642036,-0.459384,-0.580939,-0.736382,-0.757051,-0.760353,-0.767836,-0.771452,-0.769707,-0.775562,-0.781579,-0.776086,-0.776805,-0.764055,-0.767211,-0.748930,-0.694900,-0.570019
-0.626001,-0.732095,-0.743673,-0.744958,-0.760384,-0.756343,-0.760453,-0.768127,-0.743601,-0.768017,-0.751488,-0.761753,-0.747750,-0.745196,-0.656621,-0.515275,-0.616542,-0.731279,-0.736823,-0.745022,-0.750682,-0.759709,-0.758712,-0.760989,-0.766446,-0.771552,-0.767600,-0.757992,-0.760870,-0.745294,-0.691661,-0.549996
-0.618352,-0.727847,-0.733354,-0.739372,-0.756845,-0.750252,-0.758271,-0.769720,-0.774496,-0.776126,-0.757381,-0.760893,-0.754935,-0.742612,-0.627550,-0.443372,-0.596040,-0.715572,-0.724403,-0.727830,-0.748757,-0.756047,-0.759193,-0.764938,-0.767383,-0.766094,-0.769189,-0.752419,-0.760288,-0.738680,-0.667418,-0.500003
-0.603591,-0.713202,-0.723624,-0.727636,-0.748694,-0.744002,-0.750222,-0.762298,-0.768183,-0.769495,-0.748265,-0.751192,-0.738152,-0.724913,-0.605009,-0.427665,-0.589281,-0.713405,-0.716751,-0.723149,-0.746905,-0.747285,-0.758101,-0.753756,-0.762703,-0.762348,-0.762221,-0.746024,-0.749032,-0.728549,-0.652330,-0.481784
-0.607844,-0.713710,-0.721818,-0.733758,-0.749790,-0.746914,-0.757349,-0.763838,-0.764003,-0.768089,-0.746139,-0.750327,-0.733078,-0.714911,-0.573534,-0.368469,-0.579589,-0.703952,-0.718607,-0.725916,-0.742026,-0.748287,-0.755165,-0.756848,-0.762907,-0.761926,-0.757319,-0.744048,-0.737177,-0.716358,-0.629148,-0.454195
-0.591634,-0.708186,-0.720781,-0.730709,-0.744425,-0.743291,-0.753412,-0.759324,-0.763539,-0.763202,-0.744108,-0.748495,-0.733233,-0.719448,-0.583730,-0.378952,-0.548865,-0.697535,-0.712758,-0.720916,-0.738667,-0.744832,-0.751240,-0.753494,-0.760509,-0.757663,-0.754549,-0.741091,-0.736676,-0.716183,-0.632097,-0.452047
-0.582631,-0.696323,-0.716037,-0.722874,-0.737396,-0.737726,-0.748277,-0.756142,-0.765023,-0.763043,-0.738014,-0.743668,-0.727972,-0.712846,-0.576272,-0.342151,-0.544997,-0.682176,-0.697435,-0.707154,-0.729714,-0.736327,-0.745241,-0.747203,-0.752392,-0.751449,-0.750847,-0.733742,-0.729265,-0.706575,-0.624120,-0.438435
-0.553276,-0.674518,-0.697126,-0.707014,-0.720837,-0.723244,-0.736013,-0.740682,-0.750495,-0.745418,-0.721529,-0.728682,-0.712574,-0.697595,-0.553775,-0.349677,-0.555475,-0.676007,-0.690053,-0.696739,-0.716965,-0.720810,-0.729403,-0.736730,-0.738829,-0.737999,-0.738952,-0.721460,-0.715206,-0.693127,-0.580007,-0.311173
-0.534417,-0.645827,-0.664691,-0.682452,-0.689680,-0.691036,-0.698380,-0.707383,-0.718331,-0.717951,-0.695796,-0.696203,-0.677834,-0.653472,-0.469525,-0.218601,-0.500248,-0.637802,-0.654860,-0.667703,-0.691182,-0.698132,-0.702384,-0.708736,-0.714012,-0.713499,-0.707068,-0.700773,-0.685926,-0.652752,-0.534261,-0.225315
-0.533662,-0.651079,-0.682355,-0.677052,-0.696320,-0.699695,-0.704835,-0.712819,-0.722730,-0.725694,-0.707178,-0.707234,-0.682690,-0.658957,-0.495591,-0.260047,-0.514233,-0.635248,-0.655381,-0.676184,-0.697378,-0.702507,-0.709393,-0.714774,-0.723065,-0.726913,-0.713035,-0.700323,-0.687238,-0.660166,-0.545913,-0.268248
-0.457579,-0.554673,-0.551852,-0.564982,-0.573193,-0.578996,-0.583770,-0.596024,-0.623355,-0.605950,-0.572836,-0.580693,-0.537832,-0.498131,-0.320174,-0.061316,-0.456575,-0.546719,-0.563822,-0.581121,-0.591230,-0.591578,-0.596687,-0.601670,-0.604114,-0.594524,-0.592726,-0.581208,-0.564206,-0.541288,-0.449673,-0.241910
-0.474537,-0.600258,-0.606527,-0.635586,-0.639900,-0.633121,-0.649839,-0.654672,-0.657321,-0.661573,-0.633387,-0.642470,-0.606089,-0.578750,-0.391702,-0.126209,-0.456516,-0.589123,-0.605686,-0.625222,-0.647489,-0.645401,-0.652442,-0.646348,-0.654878,-0.661667,-0.659516,-0.639065,-0.615971,-0.589270,-0.489174,-0.254745
-0.517640,-0.608329,-0.635245,-0.649578,-0.659170,-0.651110,-0.657746,-0.653076,-0.630977,-0.648522,-0.655172,-0.650138,-0.631594,-0.621342,-0.529664,-0.373125,-0.513555,-0.609147,-0.645707,-0.656417,-0.667795,-0.665138,-0.665161,-0.669663,-0.677805,-0.656529,-0.664540,-0.657490,-0.643912,-0.631363,-0.518133,-0.224540
-0.517761,-0.596846,-0.634749,-0.641036,-0.640095,-0.644229,-0.644795,-0.640624,-0.624470,-0.634337,-0.648983,-0.644914,-0.615572,-0.605727,-0.518653,-0.365083,-0.522598,-0.608931,-0.632952,-0.646828,-0.652072,-0.645723,-0.654189,-0.663865,-0.670616,-0.654065,-0.651944,-0.644835,-0.635343,-0.624822,-0.504864,-0.217425
-0.532503,-0.621435,-0.653069,-0.661337,-0.673720,-0.668935,-0.675505,-0.673089,-0.650415,-0.667420,-0.672586,-0.668077,-0.648530,-0.638748,-0.548847,-0.399927,-0.537054,-0.631486,-0.659508,-0.671268,-0.682763,-0.682106,-0.685853,-0.684048,-0.687181,-0.675629,-0.676697,-0.678047,-0.666929,-0.651953,-0.538371,-0.258928
-0.537540,-0.622169,-0.655013,-0.668529,-0.678191,-0.674807,-0.677827,-0.678666,-0.656950,-0.670718,-0.679835,-0.673322,-0.653559,-0.646622,-0.555214,-0.403033,-0.547870,-0.637403,-0.666215,-0.678223,-0.685436,-0.686951,-0.688220,-0.691426,-0.699784,-0.684338,-0.688113,-0.684454,-0.674628,-0.658577,-0.544063,-0.262168
-0.522260,-0.601988,-0.640663,-0.650604,-0.663373,-0.659585,-0.670084,-0.665151,-0.651084,-0.659643,-0.671332,-0.658295,-0.641291,-0.632749,-0.543202,-0.390091,-0.528007,-0.620525,-0.650317,-0.664361,-0.674145,-0.676684,-0.675364,-0.677165,-0.680407,-0.671988,-0.673023,-0.668512,-0.659333,-0.643348,-0.528352,-0.251826
-0.520742,-0.610610,-0.643087,-0.653358,-0.665125,-0.663702,-0.666421,-0.667963,-0.645472,-0.658237,-0.668976,-0.660641,-0.642716,-0.635685,-0.538999,-0.384117,-0.534281,-0.625043,-0.651623,-0.663860,-0.672211,-0.677540,-0.681661,-0.682092,-0.690779,-0.675085,-0.674168,-0.673562,-0.663341,-0.646547,-0.535020,-0.258149
-0.524717,-0.607078,-0.635305,-0.645558,-0.659751,-0.661889,-0.659452,-0.661123,-0.638181,-0.654160,-0.665271,-0.655052,-0.636957,-0.627160,-0.524103,-0.339719,-0.533572,-0.626218,-0.644087,-0.657959,-0.663044,-0.672988,-0.673496,-0.671148,-0.679835,-0.659749,-0.665854,-0.663028,-0.652783,-0.639174,-0.525321,-0.246435
-0.481220,-0.571033,-0.598259,-0.625087,-0.630959,-0.624104,-0.634010,-0.631573,-0.628478,-0.631908,-0.638703,-0.634600,-0.608023,-0.610186,-0.529389,-0.385824,-0.491168,-0.578284,-0.600236,-0.624923,-0.633098,-0.633058,-0.637957,-0.641514,-0.659060,-0.630823,-0.646564,-0.645673,-0.633465,-0.615985,-0.513576,-0.250423
-0.523263,-0.601503,-0.645596,-0.650946,-0.657313,-0.651423,-0.658210,-0.658257,-0.636352,-0.651550,-0.662394,-0.654459,-0.640971,-0.633573,-0.564409,-0.438676,-0.562887,-0.632610,-0.648931,-0.665353,-0.666857,-0.667576,-0.662530,-0.673358,-0.678303,-0.669048,-0.672413,-0.663640,-0.656282,-0.638482,-0.543776,-0.273773
-0.529247,-0.621623,-0.644991,-0.658570,-0.670849,-0.671683,-0.668394,-0.671510,-0.643411,-0.657487,-0.670875,-0.667377,-0.642066,-0.645091,-0.547091,-0.349308,-0.559883,-0.625174,-0.661797,-0.676665,-0.676866,-0.685187,-0.682635,-0.678424,-0.693470,-0.674754,-0.682295,-0.681677,-0.664429,-0.650620,-0.549824,-0.291850
-0.564157,-0.652768,-0.683800,-0.692524,-0.704174,-0.701755,-0.702544,-0.702656,-0.693483,-0.702838,-0.710029,-0.700460,-0.694490,-0.689678,-0.610997,-0.470215,-0.566800,-0.640907,-0.682268,-0.702686,-0.708584,-0.712283,-0.713528,-0.715669,-0.719911,-0.707610,-0.719992,-0.718141,-0.706666,-0.699151,-0.596437,-0.354576
-0.567855,-0.658180,-0.691099,-0.700973,-0.711478,-0.712573,-0.708128,-0.712618,-0.700459,-0.710503,-0.718314,-0.707508,-0.695104,-0.685774,-0.602383,-0.455823,-0.572745,-0.664149,-0.693123,-0.710958,-0.713831,-0.725018,-0.721654,-0.725218,-0.732236,-0.717419,-0.725139,-0.726068,-0.709608,-0.696797,-0.603580,-0.427227
-0.574967,-0.643088,-0.669640,-0.683008,-0.689184,-0.693809,-0.683231,-0.690743,-0.679456,-0.691281,-0.702417,-0.689843,-0.676040,-0.676638,-0.596594,-0.447496,-0.563166,-0.644666,-0.673821,-0.695985,-0.689755,-0.703369,-0.700146,-0.705775,-0.707307,-0.704802,-0.703836,-0.705797,-0.692374,-0.681229,-0.600339,-0.444246
-0.575306,-0.655715,-0.682346,-0.698703,-0.700553,-0.706324,-0.706027,-0.700322,-0.704307,-0.708654,-0.708095,-0.701845,-0.691725,-0.679939,-0.605223,-0.464021,-0.583045,-0.659860,-0.683426,-0.699448,-0.706849,-0.718380,-0.710779,-0.711432,-0.718670,-0.708289,-0.708574,-0.721034,-0.697528,-0.690916,-0.593373,-0.431554
-0.552089,-0.619033,-0.622315,-0.653430,-0.658397,-0.656519,-0.653306,-0.655210,-0.633237,-0.645978,-0.654221,-0.650921,-0.627243,-0.628978,-0.556442,-0.435219,-0.541401,-0.615012,-0.641342,-0.656233,-0.659863,-0.665432,-0.666377,-0.666229,-0.668832,-0.650813,-0.654241,-0.670596,-0.633833,-0.627235,-0.540135,-0.358699
-0.471568,-0.581770,-0.609547,-0.636694,-0.635948,-0.639802,-0.638991,-0.638140,-0.624049,-0.642380,-0.643547,-0.631518,-0.602899,-0.586062,-0.490452,-0.314437,-0.480325,-0.598544,-0.626142,-0.639129,-0.647563,-0.656241,-0.651647,-0.651918,-0.667484,-0.637677,-0.656871,-0.651367,-0.626343,-0.615199,-0.520770,-0.354163
-0.544973,-0.634737,-0.658451,-0.673939,-0.684884,-0.682682,-0.681286,-0.683100,-0.668658,-0.681345,-0.687425,-0.675576,-0.657717,-0.649901,-0.560425,-0.405086,-0.552070,-0.645278,-0.669679,-0.683793,-0.687409,-0.696812,-0.696333,-0.697250,-0.697621,-0.689780,-0.697240,-0.694022,-0.672704,-0.661139,-0.568632,-0.397816
-0.555254,-0.645185,-0.657762,-0.679521,-0.683196,-0.681209,-0.686614,-0.672937,-0.650875,-0.672822,-0.680563,-0.674078,-0.654535,-0.637071,-0.516438,-0.310975,-0.540589,-0.649829,-0.667371,-0.683562,-0.683053,-0.690631,-0.690051,-0.688346,-0.692781,-0.686319,-0.692507,-0.690579,-0.662145,-0.643155,-0.494754,-0.225054
-0.567148,-0.653404,-0.679264,-0.688411,-0.701627,-0.696149,-0.700576,-0.696955,-0.678714,-0.697198,-0.705730,-0.696336,-0.685931,-0.680639,-0.597893,-0.422416,-0.567694,-0.659883,-0.688030,-0.701334,-0.705979,-0.713701,-0.709711,-0.712199,-0.713077,-0.709904,-0.716670,-0.714958,-0.695443,-0.686927,-0.598907,-0.411940
-0.579696,-0.657005,-0.682734,-0.690600,-0.704508,-0.696984,-0.702850,-0.701658,-0.692554,-0.705875,-0.714147,-0.704785,-0.692992,-0.690941,-0.624584,-0.495890,-0.581420,-0.666991,-0.690680,-0.702541,-0.711959,-0.716025,-0.714455,-0.712976,-0.718035,-0.707721,-0.719500,-0.718535,-0.698655,-0.699178,-0.626573,-0.463383
-0.571249,-0.654951,-0.680579,-0.697559,-0.696963,-0.696075,-0.696765,-0.693208,-0.682891,-0.695361,-0.706640,-0.696580,-0.679961,-0.675207,-0.593639,-0.456263,-0.574296,-0.667791,-0.689320,-0.703210,-0.705568,-0.714124,-0.702804,-0.707958,-0.709661,-0.709063,-0.716089,-0.710704,-0.692840,-0.685233,-0.615461,-0.471430
-0.557133,-0.629849,-0.664672,-0.685578,-0.694535,-0.699199,-0.697845,-0.696295,-0.685345,-0.700589,-0.708985,-0.693537,-0.683085,-0.677709,-0.602039,-0.471213,-0.542782,-0.642942,-0.674274,-0.688796,-0.696597,-0.710821,-0.706180,-0.705457,-0.700680,-0.699565,-0.710635,-0.711791,-0.681653,-0.676495,-0.595685,-0.439704
-0.569565,-0.662681,-0.683404,-0.700484,-0.710108,-0.708660,-0.709975,-0.707886,-0.693246,-0.709535,-0.719567,-0.709270,-0.694560,-0.688846,-0.605219,-0.472622,-0.573729,-0.675069,-0.694365,-0.708154,-0.711768,-0.721195,-0.716832,-0.716576,-0.722298,-0.713795,-0.722092,-0.724076,-0.700336,-0.691941,-0.613881,-0.460928
-0.567704,-0.665932,-0.681337,-0.697119,-0.704462,-0.701732,-0.703699,-0.702603,-0.687150,-0.699755,-0.709613,-0.702388,-0.688412,-0.682269,-0.604905,-0.470802,-0.565166,-0.670678,-0.687633,-0.702258,-0.704062,-0.713887,-0.710276,-0.713228,-0.713000,-0.708644,-0.715982,-0.715430,-0.694144,-0.685986,-0.609782,-0.456814
-0.575584,-0.664079,-0.677399,-0.689096,-0.700526,-0.694503,-0.697578,-0.695280,-0.684507,-0.696219,-0.703185,-0.697573,-0.685251,-0.682084,-0.606050,-0.478284,-0.561703,-0.667127,-0.683573,-0.697636,-0.697654,-0.710624,-0.700264,-0.708341,-0.708230,-0.699188,-0.715357,-0.711456,-0.693265,-0.678232,-0.601698,-0.450533
-0.549662,-0.646613,-0.675994,-0.684307,-0.692764,-0.695310,-0.695918,-0.689850,-0.685829,-0.699156,-0.705828,-0.692244,-0.682367,-0.678676,-0.604033,-0.476788,-0.544106,-0.651563,-0.668862,-0.681087,-0.692767,-0.704269,-0.700084,-0.703733,-0.707787,-0.698251,-0.707907,-0.707317,-0.682757,-0.677453,-0.600578,-0.451694
-0.634492,-0.705943,-0.706590,-0.725368,-0.732734,-0.732329,-0.733425,-0.728285,-0.709082,-0.729465,-0.738236,-0.729191,-0.722366,-0.717762,-0.646775,-0.514868,-0.623258,-0.706391,-0.721142,-0.732615,-0.734093,-0.741623,-0.736421,-0.739965,-0.735790,-0.738512,-0.746156,-0.739214,-0.724614,-0.717537,-0.650043,-0.515921
-0.642577,-0.698817,-0.705958,-0.724448,-0.729191,-0.719902,-0.717576,-0.711824,-0.718980,-0.727487,-0.734272,-0.724085,-0.716620,-0.710698,-0.642376,-0.518727,-0.631807,-0.702930,-0.714226,-0.729154,-0.720401,-0.731375,-0.729744,-0.732576,-0.733511,-0.729630,-0.739741,-0.732255,-0.716442,-0.709665,-0.645418,-0.515020
-0.659001,-0.718644,-0.718870,-0.742135,-0.745260,-0.743216,-0.746337,-0.743399,-0.722578,-0.738921,-0.750129,-0.740864,-0.730545,-0.727737,-0.655513,-0.528335,-0.649366,-0.723044,-0.733696,-0.746619,-0.745927,-0.751896,-0.749366,-0.755109,-0.745964,-0.753439,-0.755127,-0.753078,-0.733435,-0.723460,-0.661737,-0.525874
-0.659780,-0.720347,-0.720628,-0.741763,-0.746518,-0.742235,-0.747903,-0.745335,-0.722635,-0.742536,-0.749133,-0.742413,-0.732470,-0.727298,-0.654254,-0.528500,-0.647777,-0.716335,-0.729412,-0.742707,-0.744915,-0.750431,-0.748574,-0.754241,-0.748178,-0.750334,-0.755110,-0.750380,-0.733259,-0.723929,-0.655703,-0.520575
-0.649412,-0.718261,-0.720419,-0.743264,-0.748598,-0.742331,-0.746347,-0.746055,-0.727617,-0.744854,-0.751341,-0.743684,-0.734373,-0.730511,-0.655088,-0.530906,-0.647683,-0.719680,-0.733000,-0.745085,-0.746557,-0.751543,-0.747193,-0.755663,-0.748568,-0.749366,-0.761176,-0.756368,-0.733132,-0.726229,-0.657445,-0.522388
-0.637436,-0.714264,-0.714757,-0.739458,-0.745352,-0.741556,-0.746751,-0.746068,-0.729113,-0.744711,-0.751363,-0.742301,-0.733236,-0.727726,-0.651910,-0.515770,-0.648727,-0.720083,-0.733902,-0.745511,-0.747927,-0.750616,-0.749077,-0.756337,-0.746399,-0.752385,-0.760284,-0.755006,-0.734017,-0.726774,-0.658240,-0.524108
-0.645916,-0.710931,-0.708785,-0.738599,-0.739019,-0.734561,-0.736453,-0.736199,-0.717967,-0.733652,-0.739836,-0.730632,-0.723707,-0.720310,-0.647011,-0.504064,-0.641901,-0.711405,-0.725337,-0.737992,-0.740094,-0.744840,-0.740477,-0.749164,-0.738853,-0.747461,-0.750781,-0.748186,-0.728565,-0.718257,-0.652071,-0.514776
-0.640007,-0.692303,-0.688282,-0.710870,-0.716032,-0.713348,-0.714786,-0.713734,-0.705421,-0.717284,-0.716666,-0.717008,-0.706087,-0.704219,-0.632150,-0.490120,-0.635715,-0.695747,-0.702816,-0.718150,-0.712378,-0.725148,-0.721375,-0.726460,-0.713775,-0.714859,-0.736380,-0.723479,-0.705357,-0.698514,-0.631554,-0.493743
-0.631709,-0.694662,-0.698884,-0.720693,-0.731108,-0.728289,-0.725602,-0.733103,-0.714462,-0.732060,-0.736724,-0.725095,-0.711917,-0.686569,-0.599505,-0.421197,-0.615636,-0.702412,-0.711912,-0.715748,-0.730545,-0.731968,-0.722951,-0.743755,-0.730473,-0.728968,-0.734815,-0.729100,-0.706525,-0.690576,-0.613559,-0.462051
-0.651804,-0.714972,-0.714752,-0.737425,-0.739993,-0.732664,-0.737498,-0.737049,-0.725475,-0.739276,-0.746768,-0.737857,-0.729543,-0.721990,-0.649799,-0.521732,-0.634118,-0.715153,-0.727120,-0.732189,-0.738019,-0.740978,-0.737528,-0.750864,-0.740758,-0.745998,-0.750703,-0.735863,-0.727884,-0.719501,-0.652648,-0.508128
-0.648677,-0.722142,-0.717826,-0.740523,-0.736447,-0.735325,-0.738817,-0.734637,-0.729508,-0.738248,-0.734030,-0.734552,-0.724468,-0.715696,-0.637174,-0.495193,-0.638097,-0.722047,-0.736949,-0.737865,-0.741922,-0.739976,-0.742402,-0.755126,-0.737445,-0.749072,-0.749915,-0.737500,-0.724449,-0.715796,-0.634096,-0.509388
-0.661665,-0.717228,-0.721626,-0.736248,-0.737379,-0.735961,-0.741874,-0.737837,-0.723325,-0.740207,-0.747311,-0.736881,-0.727025,-0.721567,-0.650657,-0.522494,-0.641519,-0.709221,-0.731261,-0.738546,-0.745318,-0.743157,-0.743365,-0.752792,-0.738427,-0.747559,-0.750148,-0.743685,-0.730640,-0.718493,-0.651934,-0.510842
-0.659377,-0.718830,-0.711391,-0.729195,-0.733302,-0.728252,-0.735208,-0.732061,-0.716205,-0.732635,-0.742222,-0.736174,-0.726973,-0.722556,-0.645066,-0.503662,-0.649229,-0.716236,-0.730275,-0.728218,-0.733004,-0.731274,-0.734779,-0.742957,-0.737654,-0.739059,-0.740188,-0.734266,-0.727515,-0.720140,-0.644881,-0.491975
-0.676893,-0.727647,-0.719186,-0.744314,-0.747514,-0.740839,-0.744819,-0.744530,-0.729974,-0.745112,-0.750431,-0.742857,-0.734583,-0.730163,-0.662902,-0.547740,-0.662562,-0.730177,-0.740216,-0.743277,-0.749339,-0.744041,-0.747985,-0.756436,-0.749897,-0.752266,-0.754005,-0.747156,-0.736695,-0.728670,-0.662665,-0.515687
-0.671324,-0.727146,-0.719251,-0.743682,-0.745373,-0.741255,-0.746164,-0.745197,-0.725660,-0.746074,-0.750506,-0.744099,-0.736927,-0.730474,-0.665704,-0.544590,-0.662790,-0.725898,-0.738521,-0.739114,-0.747243,-0.742985,-0.746905,-0.755622,-0.749765,-0.749991,-0.753364,-0.748571,-0.738650,-0.728884,-0.667479,-0.537167
-0.626012,-0.690575,-0.668791,-0.700982,-0.706994,-0.698823,-0.705170,-0.703509,-0.692450,-0.703711,-0.710072,-0.699405,-0.687308,-0.676911,-0.606638,-0.500369,-0.614276,-0.689565,-0.695564,-0.703606,-0.705558,-0.711753,-0.702490,-0.717668,-0.707892,-0.715670,-0.711602,-0.713080,-0.685936,-0.676028,-0.617676,-0.465003
-0.660037,-0.703127,-0.674113,-0.711153,-0.712807,-0.703751,-0.722790,-0.709437,-0.687423,-0.701652,-0.712998,-0.716564,-0.698373,-0.703970,-0.648279,-0.541193,-0.658476,-0.705251,-0.715048,-0.717246,-0.728394,-0.710507,-0.723290,-0.719906,-0.719500,-0.717607,-0.718507,-0.702279,-0.713925,-0.700976,-0.656257,-0.544751
-0.688359,-0.741868,-0.727171,-0.768551,-0.773972,-0.768329,-0.767642,-0.772699,-0.729236,-0.767257,-0.770869,-0.762448,-0.744558,-0.747902,-0.667724,-0.532296,-0.673843,-0.744570,-0.765150,-0.763092,-0.777934,-0.770681,-0.772546,-0.781813,-0.767963,-0.781933,-0.774903,-0.770618,-0.760661,-0.748244,-0.684892,-0.563937
-0.723897,-0.771271,-0.759742,-0.788622,-0.791396,-0.790538,-0.790067,-0.791544,-0.780980,-0.791837,-0.797220,-0.795624,-0.791999,-0.786697,-0.721816,-0.558129,-0.716540,-0.762987,-0.777254,-0.785002,-0.792309,-0.789106,-0.791779,-0.799815,-0.796130,-0.795176,-0.795680,-0.789908,-0.790020,-0.780607,-0.718218,-0.599763
-0.737448,-0.775715,-0.759662,-0.787868,-0.793257,-0.788272,-0.788894,-0.790537,-0.777182,-0.788533,-0.799063,-0.794523,-0.785912,-0.781335,-0.722211,-0.603709,-0.714957,-0.768184,-0.778908,-0.784828,-0.794153,-0.789332,-0.792794,-0.795481,-0.793784,-0.796276,-0.791303,-0.784825,-0.786822,-0.779401,-0.716323,-0.592688
-0.734957,-0.776954,-0.759209,-0.788427,-0.793153,-0.791019,-0.792135,-0.791701,-0.781110,-0.790712,-0.798250,-0.787006,-0.785076,-0.782193,-0.734126,-0.658029,-0.712583,-0.770703,-0.778173,-0.786640,-0.791198,-0.789049,-0.790943,-0.798773,-0.797731,-0.794761,-0.793310,-0.782522,-0.786537,-0.774480,-0.729900,-0.646564
-0.738171,-0.770999,-0.746909,-0.781650,-0.783444,-0.778317,-0.786875,-0.781937,-0.763156,-0.775115,-0.785467,-0.791312,-0.779921,-0.779838,-0.744552,-0.679890,-0.730169,-0.764892,-0.777375,-0.781146,-0.786812,-0.780606,-0.781951,-0.795069,-0.791176,-0.777972,-0.781432,-0.779412,-0.779919,-0.774778,-0.745910,-0.676106
-0.758170,-0.786499,-0.776063,-0.799368,-0.803820,-0.801725,-0.803497,-0.802675,-0.788563,-0.805089,-0.811996,-0.809570,-0.803193,-0.803969,-0.772293,-0.713028,-0.752752,-0.787773,-0.795833,-0.791869,-0.801070,-0.801343,-0.805271,-0.807802,-0.806543,-0.801561,-0.806121,-0.802082,-0.803189,-0.797596,-0.757360,-0.677575
-0.754535,-0.789667,-0.753817,-0.795446,-0.809035,-0.800924,-0.809234,-0.803379,-0.794271,-0.812806,-0.812131,-0.814835,-0.806751,-0.806382,-0.770329,-0.711831,-0.756738,-0.788310,-0.797173,-0.794877,-0.804189,-0.801288,-0.810093,-0.814234,-0.812802,-0.804620,-0.811125,-0.802391,-0.805571,-0.806122,-0.765957,-0.707946
-0.779487,-0.807198,-0.799772,-0.814529,-0.817801,-0.815901,-0.817112,-0.818348,-0.800417,-0.818973,-0.823382,-0.825504,-0.817181,-0.816710,-0.788134,-0.720399,-0.773828,-0.803186,-0.811474,-0.808251,-0.815278,-0.811675,-0.819062,-0.820210,-0.821116,-0.818511,-0.818481,-0.812385,-0.817906,-0.815349,-0.778441,-0.720747
-0.758825,-0.786910,-0.774311,-0.796079,-0.804271,-0.793351,-0.805023,-0.798581,-0.778469,-0.797828,-0.809097,-0.806713,-0.790877,-0.794502,-0.759924,-0.694518,-0.747887,-0.790234,-0.792240,-0.787116,-0.796046,-0.794243,-0.803382,-0.803977,-0.806393,-0.800635,-0.804394,-0.802745,-0.804023,-0.796100,-0.766849,-0.703058
-0.775205,-0.805628,-0.802644,-0.814055,-0.818912,-0.815128,-0.814806,-0.819942,-0.800164,-0.817403,-0.828425,-0.825922,-0.813240,-0.818308,-0.790080,-0.724538,-0.778192,-0.805287,-0.813570,-0.806610,-0.814796,-0.814571,-0.821346,-0.818805,-0.821456,-0.819218,-0.818241,-0.810940,-0.817860,-0.817482,-0.788994,-0.725631
-0.744605,-0.784985,-0.771161,-0.794941,-0.801053,-0.797783,-0.799630,-0.801100,-0.794016,-0.806020,-0.811217,-0.813683,-0.799359,-0.794687,-0.763913,-0.702992,-0.744526,-0.794062,-0.801305,-0.796399,-0.802649,-0.804574,-0.809586,-0.803342,-0.806940,-0.800311,-0.794684,-0.792605,-0.807685,-0.805033,-0.779181,-0.707077
-0.738764,-0.778680,-0.765148,-0.788445,-0.787961,-0.784048,-0.790505,-0.802585,-0.795491,-0.803349,-0.807640,-0.808925,-0.801728,-0.792848,-0.774370,-0.686798,-0.723704,-0.779654,-0.786342,-0.788686,-0.792819,-0.790365,-0.797951,-0.802430,-0.799922,-0.796793,-0.792369,-0.789219,-0.798649,-0.798171,-0.764417,-0.714363
-0.758569,-0.791810,-0.785779,-0.797625,-0.802984,-0.802438,-0.793476,-0.804729,-0.797185,-0.810031,-0.815009,-0.813886,-0.809970,-0.805277,-0.776365,-0.698922,-0.737252,-0.780622,-0.791882,-0.794666,-0.795809,-0.800887,-0.804709,-0.805864,-0.803628,-0.800861,-0.804205,-0.797896,-0.809465,-0.804942,-0.780555,-0.705450
-0.775302,-0.801701,-0.789336,-0.803044,-0.810191,-0.805337,-0.808373,-0.812111,-0.800132,-0.815446,-0.820673,-0.819759,-0.814190,-0.806658,-0.776557,-0.696193,-0.765081,-0.796916,-0.805820,-0.796419,-0.803365,-0.809622,-0.810253,-0.810532,-0.815993,-0.811974,-0.804937,-0.800148,-0.810827,-0.806955,-0.775621,-0.696767
-0.771993,-0.803788,-0.790301,-0.805627,-0.810670,-0.808168,-0.806487,-0.813127,-0.796312,-0.816500,-0.820301,-0.821285,-0.813596,-0.810956,-0.776137,-0.693630,-0.760123,-0.798728,-0.810474,-0.800701,-0.807369,-0.810702,-0.811877,-0.813561,-0.814737,-0.811168,-0.809703,-0.808957,-0.814481,-0.810837,-0.775921,-0.694488
-0.749861,-0.788005,-0.785217,-0.798604,-0.802449,-0.803707,-0.806608,-0.809180,-0.794933,-0.808893,-0.819547,-0.809042,-0.810813,-0.807495,-0.772160,-0.691666,-0.758648,-0.792099,-0.805326,-0.795194,-0.801592,-0.807253,-0.804933,-0.807247,-0.809082,-0.808948,-0.808962,-0.803010,-0.810813,-0.805309,-0.773811,-0.696880
-0.786772,-0.808424,-0.792073,-0.809861,-0.814304,-0.811162,-0.808004,-0.814337,-0.803431,-0.818337,-0.824994,-0.823034,-0.815868,-0.811476,-0.776931,-0.690191,-0.766724,-0.800895,-0.810720,-0.805503,-0.806943,-0.812932,-0.814856,-0.815291,-0.819480,-0.809933,-0.811418,-0.808914,-0.816178,-0.808249,-0.773261,-0.691648
-0.794263,-0.817539,-0.800797,-0.815897,-0.821363,-0.821888,-0.817593,-0.821608,-0.814068,-0.827810,-0.833910,-0.828630,-0.817994,-0.810464,-0.759136,-0.650319,-0.777335,-0.815448,-0.820196,-0.813267,-0.814007,-0.822078,-0.825489,-0.823583,-0.828237,-0.820389,-0.818398,-0.817870,-0.820965,-0.813141,-0.767108,-0.692770
-0.805550,-0.825878,-0.808767,-0.828528,-0.830757,-0.829519,-0.828092,-0.829918,-0.816294,-0.836016,-0.839866,-0.840232,-0.830756,-0.830155,-0.802519,-0.736150,-0.787353,-0.823309,-0.834112,-0.822998,-0.823990,-0.832272,-0.835292,-0.831678,-0.837994,-0.828998,-0.832408,-0.827912,-0.832019,-0.829627,-0.796524,-0.717765
-0.812715,-0.832368,-0.806684,-0.840043,-0.841342,-0.837449,-0.837195,-0.835699,-0.825434,-0.844590,-0.846341,-0.843157,-0.839298,-0.835498,-0.805814,-0.741740,-0.781020,-0.834451,-0.838882,-0.832440,-0.830584,-0.836238,-0.839684,-0.837869,-0.846457,-0.835477,-0.840057,-0.833986,-0.843452,-0.838525,-0.810126,-0.733446
-0.731823,-0.753559,-0.715404,-0.733738,-0.742423,-0.741342,-0.735514,-0.735602,-0.764207,-0.756140,-0.734470,-0.738071,-0.752135,-0.744313,-0.724668,-0.672543,-0.708007,-0.749238,-0.736607,-0.739571,-0.735284,-0.743953,-0.750833,-0.745898,-0.757320,-0.741515,-0.732325,-0.757674,-0.739393,-0.746727,-0.718344,-0.652941
-0.792135,-0.812776,-0.780133,-0.811488,-0.810938,-0.809979,-0.806455,-0.811937,-0.809330,-0.817389,-0.816369,-0.817387,-0.810089,-0.811579,-0.783785,-0.725113,-0.778135,-0.808844,-0.811656,-0.808753,-0.804316,-0.803650,-0.817064,-0.809894,-0.814311,-0.814739,-0.813884,-0.816215,-0.812563,-0.813345,-0.784941,-0.719304
-0.798512,-0.822000,-0.792618,-0.819646,-0.822965,-0.816615,-0.821017,-0.823285,-0.805576,-0.821479,-0.823961,-0.825859,-0.819530,-0.825477,-0.793042,-0.731455,-0.783978,-0.815567,-0.818973,-0.813396,-0.815351,-0.821224,-0.825277,-0.824228,-0.828303,-0.822359,-0.820875,-0.820768,-0.825157,-0.822353,-0.791686,-0.723060
-0.808051,-0.826417,-0.811640,-0.826056,-0.825037,-0.829799,-0.824006,-0.827362,-0.815733,-0.831618,-0.831166,-0.831525,-0.828012,-0.829570,-0.801402,-0.732943,-0.790539,-0.821330,-0.823858,-0.816153,-0.819005,-0.825549,-0.827890,-0.828699,-0.831316,-0.828845,-0.828844,-0.835321,-0.827743,-0.826904,-0.796137,-0.726598
-0.791715,-0.820922,-0.800570,-0.820189,-0.818953,-0.820199,-0.820285,-0.819743,-0.808729,-0.823801,-0.824040,-0.824004,-0.818705,-0.819300,-0.793040,-0.731112,-0.781249,-0.818034,-0.820917,-0.815788,-0.816334,-0.820799,-0.823283,-0.821618,-0.824038,-0.823505,-0.822891,-0.827439,-0.822216,-0.818498,-0.793557,-0.728051
-0.815095,-0.829324,-0.806982,-0.824350,-0.825151,-0.824728,-0.826468,-0.828240,-0.821388,-0.834587,-0.831964,-0.832644,-0.829360,-0.831606,-0.807645,-0.746461,-0.795240,-0.828011,-0.826399,-0.827741,-0.821544,-0.824736,-0.830176,-0.829941,-0.831321,-0.831255,-0.828844,-0.831402,-0.827974,-0.827487,-0.802854,-0.734498
-0.816483,-0.829362,-0.816276,-0.826938,-0.826725,-0.830855,-0.826852,-0.827890,-0.822106,-0.835272,-0.832550,-0.832909,-0.828800,-0.830258,-0.807943,-0.747897,-0.793953,-0.828266,-0.828214,-0.828071,-0.821904,-0.827777,-0.832098,-0.829931,-0.831870,-0.831198,-0.829577,-0.835006,-0.827560,-0.827093,-0.803107,-0.734402
-0.803179,-0.815023,-0.803024,-0.816000,-0.814186,-0.820097,-0.818564,-0.817211,-0.815943,-0.824212,-0.821528,-0.823649,-0.815533,-0.819268,-0.798893,-0.742129,-0.792941,-0.817971,-0.821554,-0.821517,-0.812792,-0.819580,-0.824826,-0.824346,-0.824289,-0.811622,-0.817002,-0.827197,-0.814216,-0.818184,-0.799468,-0.727005
-0.812308,-0.826253,-0.812223,-0.824263,-0.823867,-0.823279,-0.823427,-0.820073,-0.816051,-0.826527,-0.827007,-0.830352,-0.821185,-0.824677,-0.798275,-0.743846,-0.797344,-0.827065,-0.825443,-0.824516,-0.817918,-0.826005,-0.826808,-0.826794,-0.830338,-0.824056,-0.821810,-0.825848,-0.823403,-0.819426,-0.802002,-0.732346
-0.818433,-0.827139,-0.821260,-0.829956,-0.830394,-0.833529,-0.826130,-0.830348,-0.820291,-0.835367,-0.836540,-0.834515,-0.828212,-0.825028,-0.782770,-0.703435,-0.794169,-0.830438,-0.832046,-0.831437,-0.819911,-0.832096,-0.838225,-0.828074,-0.833529,-0.833114,-0.830706,-0.840856,-0.827545,-0.822572,-0.775997,-0.679761
-0.829311,-0.844133,-0.820564,-0.839642,-0.837246,-0.839112,-0.837255,-0.834791,-0.825702,-0.845082,-0.842092,-0.843561,-0.837234,-0.840184,-0.821744,-0.779105,-0.810699,-0.841387,-0.841742,-0.842780,-0.835845,-0.836439,-0.842264,-0.844390,-0.841853,-0.840833,-0.836103,-0.843343,-0.834775,-0.835114,-0.818410,-0.768152
-0.831121,-0.850466,-0.829498,-0.845132,-0.837351,-0.837008,-0.838198,-0.838410,-0.838917,-0.853513,-0.848001,-0.845494,-0.846223,-0.847710,-0.827212,-0.785697,-0.806998,-0.842166,-0.841053,-0.842399,-0.831358,-0.834705,-0.835406,-0.842928,-0.850144,-0.842526,-0.842459,-0.856169,-0.845796,-0.839871,-0.825940,-0.772907
-0.839265,-0.859474,-0.839598,-0.854228,-0.848773,-0.850492,-0.847945,-0.848858,-0.836764,-0.857143,-0.853528,-0.856268,-0.852457,-0.853999,-0.832424,-0.792122,-0.820182,-0.854930,-0.853574,-0.853855,-0.848356,-0.848039,-0.851749,-0.854716,-0.854780,-0.853318,-0.851191,-0.863106,-0.851952,-0.847823,-0.831295,-0.780459
-0.840116,-0.862535,-0.839350,-0.854336,-0.848154,-0.851435,-0.849750,-0.851605,-0.843755,-0.859714,-0.854130,-0.854111,-0.854336,-0.853815,-0.832274,-0.793226,-0.821517,-0.851866,-0.853368,-0.853823,-0.846675,-0.847753,-0.850095,-0.855128,-0.854799,-0.851725,-0.852934,-0.862543,-0.851986,-0.847147,-0.828614,-0.778126
-0.828768,-0.853706,-0.835325,-0.848184,-0.842209,-0.843743,-0.839952,-0.845626,-0.841884,-0.854371,-0.850620,-0.851257,-0.845029,-0.848108,-0.827282,-0.786016,-0.818215,-0.847090,-0.846764,-0.848866,-0.843183,-0.843832,-0.843235,-0.850909,-0.847741,-0.841415,-0.847110,-0.858310,-0.845993,-0.839991,-0.821904,-0.771083
-0.824766,-0.847145,-0.831194,-0.832557,-0.831467,-0.837681,-0.829098,-0.839395,-0.840520,-0.849094,-0.845927,-0.846601,-0.845766,-0.847461,-0.822829,-0.784457,-0.817933,-0.850102,-0.846338,-0.838361,-0.838278,-0.835946,-0.843697,-0.842880,-0.851432,-0.844658,-0.839860,-0.844488,-0.843630,-0.831818,-0.817246,-0.762453
-0.840566,-0.862166,-0.844207,-0.856888,-0.853002,-0.856378,-0.854005,-0.854761,-0.845730,-0.865514,-0.860716,-0.861165,-0.858183,-0.856820,-0.833227,-0.793539,-0.823883,-0.859773,-0.858866,-0.863363,-0.854370,-0.851756,-0.858385,-0.863409,-0.861916,-0.858012,-0.859024,-0.867926,-0.856231,-0.851582,-0.836074,-0.795357
-0.842611,-0.866611,-0.840875,-0.865211,-0.856505,-0.860025,-0.861803,-0.862227,-0.854648,-0.865615,-0.868111,-0.865471,-0.859188,-0.859342,-0.832694,-0.787948,-0.827357,-0.862793,-0.858341,-0.866073,-0.860879,-0.853114,-0.858615,-0.867144,-0.865866,-0.862430,-0.862829,-0.863378,-0.858777,-0.852558,-0.839316,-0.791378
-0.803597,-0.800418,-0.787359,-0.821045,-0.802541,-0.802040,-0.805787,-0.808082,-0.821739,-0.827200,-0.827558,-0.823796,-0.809451,-0.808913,-0.794732,-0.767010,-0.753601,-0.808549,-0.821253,-0.818787,-0.808592,-0.810878,-0.811613,-0.812678,-0.821277,-0.806807,-0.824789,-0.816704,-0.817915,-0.808904,-0.806196,-0.755584
-0.830303,-0.854341,-0.835584,-0.841026,-0.848408,-0.844188,-0.839784,-0.848003,-0.840991,-0.855218,-0.846842,-0.849982,-0.854603,-0.858455,-0.839755,-0.813061,-0.835363,-0.861491,-0.836665,-0.864088,-0.858362,-0.837382,-0.844157,-0.858282,-0.850552,-0.857440,-0.844586,-0.842676,-0.853369,-0.854246,-0.858709,-0.827777
-0.875612,-0.890474,-0.869653,-0.883662,-0.882418,-0.885517,-0.879943,-0.880455,-0.861959,-0.882403,-0.880745,-0.882404,-0.883571,-0.886313,-0.878932,-0.878576,-0.867849,-0.891097,-0.886413,-0.887861,-0.883771,-0.878534,-0.885360,-0.889632,-0.889808,-0.889074,-0.882676,-0.893756,-0.885405,-0.885170,-0.881645,-0.865456
-0.876989,-0.890413,-0.876486,-0.884479,-0.881130,-0.882241,-0.880943,-0.879333,-0.873251,-0.888050,-0.879585,-0.884605,-0.886008,-0.889885,-0.881063,-0.880106,-0.858364,-0.889581,-0.887071,-0.888131,-0.883812,-0.874797,-0.885767,-0.888419,-0.887988,-0.887366,-0.884675,-0.892204,-0.885484,-0.885157,-0.882807,-0.871009
-0.861803,-0.889344,-0.876413,-0.884912,-0.879187,-0.879031,-0.877319,-0.878047,-0.873962,-0.888584,-0.875723,-0.884628,-0.884364,-0.888729,-0.878388,-0.879064,-0.836090,-0.881390,-0.886151,-0.888017,-0.882855,-0.872589,-0.884710,-0.886855,-0.884016,-0.884204,-0.880769,-0.891589,-0.882954,-0.883984,-0.881727,-0.865995
-0.867284,-0.889179,-0.876122,-0.883600,-0.880199,-0.883130,-0.878021,-0.877698,-0.871833,-0.884487,-0.877198,-0.881435,-0.883223,-0.888859,-0.880371,-0.876117,-0.852116,-0.888640,-0.886450,-0.885930,-0.881618,-0.875137,-0.883344,-0.887600,-0.888777,-0.884757,-0.880429,-0.890062,-0.883373,-0.885190,-0.881874,-0.868649
-0.611826,-0.718641,-0.749269,-0.779817,-0.777367,-0.788852,-0.790336,-0.796948,-0.780402,-0.797177,-0.792268,-0.793466,-0.751630,-0.709186,-0.511856,-0.314773,-0.610092,-0.734960,-0.751871,-0.779703,-0.786387,-0.786051,-0.802999,-0.806453,-0.819846,-0.814047,-0.801465,-0.799434,-0.765534,-0.726239,-0.525055,-0.157546
-0.604476,-0.709450,-0.740050,-0.769707,-0.768248,-0.778013,-0.781649,-0.784739,-0.758628,-0.782442,-0.780330,-0.786415,-0.747361,-0.711682,-0.542646,-0.334977,-0.595616,-0.726546,-0.742148,-0.769014,-0.785099,-0.780970,-0.797252,-0.796776,-0.803582,-0.803819,-0.790146,-0.796142,-0.767496,-0.733302,-0.540809,-0.177194
-0.611683,-0.713210,-0.743627,-0.769789,-0.767379,-0.777404,-0.779668,-0.782410,-0.763055,-0.785351,-0.781024,-0.783998,-0.747475,-0.709262,-0.530944,-0.318178,-0.602113,-0.728570,-0.746044,-0.770241,-0.783845,-0.783429,-0.797545,-0.799016,-0.801300,-0.802425,-0.791643,-0.792960,-0.763440,-0.728498,-0.531385,-0.161714
-0.604313,-0.704578,-0.738602,-0.765724,-0.764504,-0.772296,-0.776647,-0.779677,-0.760936,-0.782552,-0.778058,-0.776988,-0.735116,-0.696153,-0.507299,-0.287853,-0.596124,-0.723203,-0.740788,-0.762651,-0.781525,-0.778652,-0.792987,-0.795241,-0.800132,-0.798795,-0.786684,-0.790252,-0.755207,-0.719043,-0.507969,-0.128522
-0.614309,-0.709560,-0.733342,-0.767254,-0.765731,-0.775537,-0.778073,-0.778049,-0.759106,-0.783939,-0.778775,-0.781685,-0.741345,-0.704673,-0.527886,-0.317060,-0.594480,-0.722865,-0.741082,-0.763763,-0.775822,-0.774141,-0.792049,-0.792337,-0.802694,-0.801211,-0.788491,-0.790779,-0.758284,-0.723882,-0.526777,-0.160659
-0.613502,-0.710929,-0.739179,-0.768409,-0.767181,-0.777083,-0.776530,-0.780255,-0.757369,-0.780742,-0.778933,-0.780625,-0.741504,-0.702019,-0.526608,-0.313518,-0.597522,-0.726024,-0.741932,-0.765801,-0.781086,-0.780311,-0.796616,-0.796291,-0.793784,-0.800027,-0.788183,-0.790653,-0.758802,-0.723055,-0.528026,-0.167010
-0.573247,-0.684232,-0.721930,-0.743770,-0.743350,-0.749304,-0.759481,-0.757172,-0.737139,-0.758664,-0.754346,-0.748311,-0.712803,-0.659771,-0.468389,-0.234404,-0.550168,-0.703557,-0.719617,-0.739878,-0.757925,-0.762596,-0.773014,-0.777688,-0.778547,-0.782508,-0.767526,-0.772441,-0.736186,-0.693311,-0.483997,-0.118071
-0.575475,-0.685442,-0.724559,-0.747269,-0.750819,-0.756232,-0.768836,-0.758444,-0.745199,-0.763614,-0.762661,-0.766998,-0.722711,-0.683092,-0.489593,-0.256557,-0.576289,-0.706744,-0.727189,-0.748728,-0.767871,-0.753602,-0.779035,-0.780090,-0.782955,-0.779747,-0.772800,-0.770512,-0.746852,-0.710669,-0.522314,-0.175526
-0.573160,-0.661285,-0.704410,-0.729545,-0.729874,-0.740786,-0.743774,-0.749917,-0.716907,-0.740654,-0.743805,-0.732331,-0.682997,-0.635537,-0.447569,-0.319894,-0.563165,-0.693904,-0.710830,-0.738297,-0.741510,-0.741574,-0.758335,-0.757351,-0.775274,-0.763864,-0.751223,-0.742496,-0.705644,-0.645096,-0.414914,0.005799
-0.639918,-0.726449,-0.764193,-0.782348,-0.784464,-0.783386,-0.793286,-0.787569,-0.775211,-0.797751,-0.796621,-0.798167,-0.773058,-0.745880,-0.618522,-0.465838,-0.625735,-0.746964,-0.760110,-0.776198,-0.794205,-0.794094,-0.804131,-0.807386,-0.804301,-0.814727,-0.807835,-0.803296,-0.786593,-0.766234,-0.622328,-0.365507
-0.634691,-0.732398,-0.763641,-0.781933,-0.782457,-0.786034,-0.797803,-0.797574,-0.771723,-0.786986,-0.798399,-0.793298,-0.765077,-0.740839,-0.613163,-0.462732,-0.635470,-0.747507,-0.763014,-0.781555,-0.798131,-0.798894,-0.801976,-0.809285,-0.810429,-0.814893,-0.805350,-0.805119,-0.788087,-0.767880,-0.626497,-0.376990
-0.632377,-0.733113,-0.768101,-0.781152,-0.775779,-0.781217,-0.790282,-0.788582,-0.774233,-0.793159,-0.795056,-0.794940,-0.773544,-0.747531,-0.610588,-0.439830,-0.625891,-0.746925,-0.761736,-0.780597,-0.793274,-0.796271,-0.797020,-0.800035,-0.803039,-0.809715,-0.802460,-0.802315,-0.791844,-0.771326,-0.604773,-0.280046
-0.574547,-0.659670,-0.679966,-0.689383,-0.694659,-0.682469,-0.693216,-0.696263,-0.659224,-0.690799,-0.705449,-0.703060,-0.684775,-0.652868,-0.531933,-0.311657,-0.561856,-0.661155,-0.675015,-0.695811,-0.700464,-0.703782,-0.696402,-0.709441,-0.716200,-0.720305,-0.700064,-0.720332,-0.700106,-0.682610,-0.563953,-0.265159
-0.616875,-0.704802,-0.741919,-0.752471,-0.761094,-0.760174,-0.772897,-0.773226,-0.737160,-0.764804,-0.774290,-0.773037,-0.744892,-0.718178,-0.574495,-0.359625,-0.603985,-0.721783,-0.733331,-0.759358,-0.772378,-0.774429,-0.779792,-0.785000,-0.786928,-0.793283,-0.779982,-0.783934,-0.764362,-0.739069,-0.578257,-0.262107
-0.579528,-0.673489,-0.702744,-0.715769,-0.726731,-0.736215,-0.739792,-0.748535,-0.711514,-0.734834,-0.741804,-0.750541,-0.715918,-0.687699,-0.549507,-0.343174,-0.566175,-0.694160,-0.702863,-0.724534,-0.752687,-0.754874,-0.750264,-0.765420,-0.761220,-0.772629,-0.748732,-0.754201,-0.741459,-0.718137,-0.563578,-0.264676
-0.615049,-0.707447,-0.734127,-0.752843,-0.761057,-0.761826,-0.769583,-0.774550,-0.743615,-0.764901,-0.773262,-0.773256,-0.741824,-0.713048,-0.566655,-0.350507,-0.604952,-0.723496,-0.733429,-0.759516,-0.775495,-0.774870,-0.777442,-0.784178,-0.786022,-0.785982,-0.775977,-0.783084,-0.762851,-0.734842,-0.577593,-0.268639
-0.615971,-0.708888,-0.740476,-0.750845,-0.762077,-0.764349,-0.770350,-0.775649,-0.739772,-0.767070,-0.777024,-0.775055,-0.742272,-0.713963,-0.566530,-0.354299,-0.599554,-0.723563,-0.735135,-0.761493,-0.777373,-0.781754,-0.784489,-0.788706,-0.786859,-0.793972,-0.779507,-0.789651,-0.766190,-0.735194,-0.580251,-0.268680
-0.530932,-0.675997,-0.731843,-0.743792,-0.752682,-0.754585,-0.767145,-0.768746,-0.738445,-0.765311,-0.770732,-0.773404,-0.734198,-0.705995,-0.546039,-0.311657,-0.508971,-0.695418,-0.709702,-0.745214,-0.773468,-0.771646,-0.781055,-0.782250,-0.781998,-0.788808,-0.771310,-0.784509,-0.757356,-0.720199,-0.541959,-0.199615
-0.700280,-0.768149,-0.780826,-0.792917,-0.812385,-0.803628,-0.807860,-0.809162,-0.777028,-0.802206,-0.808443,-0.809078,-0.778766,-0.750960,-0.601222,-0.381337,-0.676368,-0.783281,-0.784178,-0.802467,-0.823091,-0.821847,-0.819989,-0.820972,-0.821298,-0.827601,-0.806640,-0.823962,-0.801301,-0.761734,-0.612000,-0.295848
-0.722276,-0.783428,-0.789079,-0.807107,-0.816666,-0.818560,-0.816543,-0.817246,-0.788722,-0.811652,-0.816088,-0.812086,-0.782629,-0.747432,-0.584544,-0.359927,-0.700961,-0.798480,-0.797969,-0.816489,-0.834183,-0.830843,-0.824688,-0.832595,-0.830918,-0.830579,-0.813235,-0.828788,-0.800686,-0.762419,-0.590239,-0.261522
-0.670741,-0.740031,-0.747013,-0.766092,-0.776672,-0.776300,-0.774951,-0.779533,-0.748735,-0.767815,-0.776827,-0.770816,-0.744784,-0.713995,-0.576478,-0.374051,-0.646869,-0.748993,-0.755906,-0.775460,-0.785781,-0.787367,-0.787701,-0.797622,-0.797229,-0.798642,-0.781414,-0.788963,-0.768641,-0.736904,-0.595220,-0.291685
-0.663774,-0.732880,-0.742148,-0.758138,-0.771569,-0.769465,-0.768666,-0.776362,-0.743090,-0.761206,-0.772076,-0.764120,-0.737712,-0.709988,-0.574861,-0.372145,-0.639687,-0.740760,-0.748270,-0.764790,-0.777792,-0.781980,-0.781834,-0.790672,-0.791428,-0.793459,-0.775720,-0.787392,-0.761316,-0.728672,-0.592749,-0.289986
-0.632568,-0.706072,-0.725326,-0.731339,-0.743920,-0.737130,-0.743631,-0.748905,-0.717386,-0.735744,-0.745156,-0.737130,-0.705554,-0.684205,-0.552958,-0.352331,-0.608686,-0.710307,-0.714464,-0.739277,-0.736670,-0.759132,-0.752083,-0.757376,-0.766354,-0.763389,-0.749362,-0.753157,-0.732642,-0.700261,-0.566952,-0.266725
-0.629173,-0.710438,-0.697492,-0.732459,-0.751534,-0.747172,-0.743268,-0.754768,-0.716823,-0.739405,-0.753371,-0.744621,-0.697171,-0.659817,-0.488583,-0.231850,-0.602126,-0.709060,-0.718656,-0.742946,-0.753388,-0.757676,-0.764378,-0.768656,-0.777341,-0.777466,-0.756051,-0.769728,-0.731643,-0.697001,-0.521830,-0.157377
-0.579544,-0.670938,-0.691081,-0.697096,-0.712714,-0.709021,-0.713385,-0.723633,-0.703781,-0.714464,-0.721117,-0.690689,-0.654040,-0.606226,-0.396636,-0.110746,-0.550869,-0.676906,-0.694472,-0.717605,-0.731397,-0.745219,-0.728235,-0.739096,-0.748155,-0.738838,-0.724336,-0.713825,-0.682924,-0.633079,-0.445161,-0.078816
-0.631466,-0.714600,-0.724990,-0.744401,-0.757970,-0.754303,-0.752315,-0.764492,-0.726000,-0.747184,-0.759935,-0.739325,-0.695847,-0.660261,-0.460804,-0.197248,-0.599248,-0.718693,-0.732871,-0.748776,-0.760487,-0.772340,-0.767269,-0.777995,-0.782561,-0.779088,-0.762475,-0.763196,-0.726610,-0.681218,-0.483492,-0.094103
-0.611971,-0.696322,-0.712173,-0.725086,-0.735615,-0.736914,-0.740854,-0.745973,-0.721694,-0.742451,-0.746513,-0.739115,-0.710783,-0.680686,-0.522097,-0.248411,-0.588948,-0.696165,-0.709949,-0.731783,-0.738288,-0.760180,-0.756854,-0.766215,-0.769106,-0.758854,-0.759535,-0.756001,-0.739385,-0.704948,-0.547820,-0.214150
-0.635376,-0.716917,-0.732909,-0.738616,-0.753975,-0.751998,-0.755305,-0.764141,-0.734215,-0.751932,-0.764288,-0.751029,-0.724428,-0.693617,-0.530029,-0.252974,-0.611517,-0.718280,-0.734560,-0.753173,-0.758864,-0.775858,-0.768899,-0.781010,-0.779286,-0.783818,-0.768655,-0.774547,-0.750812,-0.716238,-0.557212,-0.219210
-0.597396,-0.703243,-0.717560,-0.731981,-0.745199,-0.742791,-0.747284,-0.753192,-0.723179,-0.739929,-0.753950,-0.742014,-0.711563,-0.673801,-0.473352,-0.134434,-0.591552,-0.708341,-0.721203,-0.745413,-0.751427,-0.767520,-0.759703,-0.770222,-0.775540,-0.769924,-0.761798,-0.764257,-0.738522,-0.699343,-0.524849,-0.144003
-0.655611,-0.726195,-0.739898,-0.742505,-0.756875,-0.751176,-0.757004,-0.768965,-0.732319,-0.752016,-0.763362,-0.752783,-0.726548,-0.696536,-0.518888,-0.225498,-0.633730,-0.725555,-0.737492,-0.755693,-0.759915,-0.777790,-0.771638,-0.777970,-0.782267,-0.781431,-0.769328,-0.769859,-0.751074,-0.711897,-0.536221,-0.150180
-0.659104,-0.729636,-0.745969,-0.747007,-0.762876,-0.753923,-0.764388,-0.774938,-0.743914,-0.758385,-0.768434,-0.755202,-0.731518,-0.706217,-0.542614,-0.259393,-0.637486,-0.727810,-0.741530,-0.760453,-0.763488,-0.780566,-0.775344,-0.781914,-0.789606,-0.783620,-0.772605,-0.773822,-0.759820,-0.724934,-0.569161,-0.221893
-0.659135,-0.732572,-0.744737,-0.747365,-0.762199,-0.756961,-0.763675,-0.775675,-0.737610,-0.759068,-0.768268,-0.757813,-0.734275,-0.706003,-0.542050,-0.255213,-0.636476,-0.728659,-0.741742,-0.761093,-0.762883,-0.781846,-0.776936,-0.783814,-0.788661,-0.786078,-0.775367,-0.774961,-0.760075,-0.725037,-0.573459,-0.228571
-0.642075,-0.726852,-0.740249,-0.742510,-0.760053,-0.753417,-0.760139,-0.770690,-0.739479,-0.755677,-0.765002,-0.754168,-0.725680,-0.697205,-0.523085,-0.224547,-0.608341,-0.721675,-0.737013,-0.756133,-0.754360,-0.778509,-0.773432,-0.780682,-0.785148,-0.782803,-0.772311,-0.770733,-0.756395,-0.720266,-0.560031,-0.207607
-0.607400,-0.698352,-0.722380,-0.718146,-0.733476,-0.721322,-0.732759,-0.744861,-0.721614,-0.734617,-0.744454,-0.732240,-0.706734,-0.678002,-0.504624,-0.211268,-0.581685,-0.694639,-0.703707,-0.729254,-0.731680,-0.746013,-0.746580,-0.756728,-0.757290,-0.763606,-0.747840,-0.751016,-0.738106,-0.700872,-0.544761,-0.195386
-0.637363,-0.712739,-0.731695,-0.732859,-0.748465,-0.741611,-0.750140,-0.764152,-0.729913,-0.745467,-0.754658,-0.745663,-0.717375,-0.688519,-0.482179,-0.140507,-0.614210,-0.707902,-0.723722,-0.744957,-0.750005,-0.769789,-0.765988,-0.767713,-0.767077,-0.765490,-0.763153,-0.761364,-0.746450,-0.712490,-0.532240,-0.152206
-0.587822,-0.692784,-0.712539,-0.728264,-0.740900,-0.738210,-0.744456,-0.755224,-0.725249,-0.743599,-0.748647,-0.735604,-0.696576,-0.654940,-0.408550,-0.056859,-0.560497,-0.690244,-0.719314,-0.738540,-0.737496,-0.763619,-0.762061,-0.765209,-0.768602,-0.765795,-0.756381,-0.754626,-0.719122,-0.675349,-0.446988,-0.011116
-0.621241,-0.700367,-0.711615,-0.722740,-0.733969,-0.726862,-0.737219,-0.751335,-0.714974,-0.735123,-0.742921,-0.734047,-0.701329,-0.664924,-0.423131,-0.069827,-0.595934,-0.698691,-0.713965,-0.732266,-0.738254,-0.758903,-0.755809,-0.758471,-0.760324,-0.760582,-0.749236,-0.750826,-0.728237,-0.684794,-0.482603,-0.058061
-0.609955,-0.689013,-0.699741,-0.711978,-0.721686,-0.717863,-0.724457,-0.732161,-0.698923,-0.721438,-0.729230,-0.716168,-0.683647,-0.659565,-0.463779,-0.143978,-0.573734,-0.679609,-0.696162,-0.717982,-0.726378,-0.745334,-0.739101,-0.747212,-0.750705,-0.742927,-0.742882,-0.743483,-0.716723,-0.682101,-0.504746,-0.128522
-0.593897,-0.689323,-0.704309,-0.715623,-0.728784,-0.720778,-0.735397,-0.746135,-0.713375,-0.732873,-0.734219,-0.729162,-0.697136,-0.664430,-0.457167,-0.128838,-0.577588,-0.685790,-0.705688,-0.720165,-0.730038,-0.752172,-0.752296,-0.751681,-0.756766,-0.749987,-0.749215,-0.750791,-0.725312,-0.689911,-0.502989,-0.111467
-0.633417,-0.699721,-0.717959,-0.723769,-0.732471,-0.727835,-0.737116,-0.751316,-0.715879,-0.734315,-0.738257,-0.732767,-0.701354,-0.673779,-0.477453,-0.142936,-0.597541,-0.693820,-0.713477,-0.728070,-0.734519,-0.754242,-0.757478,-0.757925,-0.757687,-0.753995,-0.749325,-0.748628,-0.728353,-0.697145,-0.521231,-0.128743
-0.630595,-0.692093,-0.702570,-0.712746,-0.715138,-0.714855,-0.728657,-0.737915,-0.692692,-0.717842,-0.723873,-0.724835,-0.707412,-0.685352,-0.505386,-0.209479,-0.604548,-0.682242,-0.704326,-0.712624,-0.718423,-0.732006,-0.739757,-0.740328,-0.737920,-0.726536,-0.736067,-0.738093,-0.723873,-0.704825,-0.552851,-0.216465
-0.617414,-0.692811,-0.714308,-0.723252,-0.727072,-0.727714,-0.737854,-0.748608,-0.711452,-0.734214,-0.736335,-0.729974,-0.694332,-0.665391,-0.463247,-0.156516,-0.580605,-0.677842,-0.712150,-0.721751,-0.734194,-0.752891,-0.758052,-0.758051,-0.755890,-0.750665,-0.752810,-0.747831,-0.716258,-0.686226,-0.509068,-0.189170
-0.623615,-0.701630,-0.722902,-0.726743,-0.735101,-0.730037,-0.744116,-0.753338,-0.708492,-0.738496,-0.738010,-0.732163,-0.699382,-0.670289,-0.468633,-0.163247,-0.588118,-0.683842,-0.713915,-0.727573,-0.735306,-0.755658,-0.761462,-0.762562,-0.761658,-0.751969,-0.756732,-0.754185,-0.722203,-0.690150,-0.511484,-0.191322
-0.623073,-0.698833,-0.717894,-0.727997,-0.731391,-0.732511,-0.738805,-0.751946,-0.712776,-0.735610,-0.738759,-0.734368,-0.704819,-0.677316,-0.486844,-0.187483,-0.590873,-0.682183,-0.714857,-0.721840,-0.735810,-0.754295,-0.760581,-0.759592,-0.761530,-0.752129,-0.757973,-0.749964,-0.724766,-0.697189,-0.526053,-0.205669
-0.624270,-0.702903,-0.724442,-0.732021,-0.736246,-0.735789,-0.746416,-0.756332,-0.716313,-0.742708,-0.742220,-0.736676,-0.707515,-0.677384,-0.487044,-0.187779,-0.592706,-0.686489,-0.719538,-0.729045,-0.737741,-0.758527,-0.761998,-0.763400,-0.766147,-0.755010,-0.760446,-0.754970,-0.728417,-0.699146,-0.529570,-0.212357
-0.624180,-0.701218,-0.723939,-0.728342,-0.734843,-0.733221,-0.744398,-0.752715,-0.717265,-0.742092,-0.740895,-0.735596,-0.706121,-0.676666,-0.484981,-0.190181,-0.590651,-0.684844,-0.715419,-0.727924,-0.736544,-0.754960,-0.760982,-0.762081,-0.763453,-0.753846,-0.760643,-0.755433,-0.727623,-0.699370,-0.528870,-0.212232
-0.609369,-0.687130,-0.718562,-0.714707,-0.726410,-0.721961,-0.738060,-0.750590,-0.717024,-0.738319,-0.737203,-0.732186,-0.701875,-0.669696,-0.481504,-0.185803,-0.579206,-0.677429,-0.706953,-0.715681,-0.730311,-0.744388,-0.754103,-0.755444,-0.760571,-0.747099,-0.756086,-0.743549,-0.720228,-0.692562,-0.517082,-0.188413
-0.599036,-0.659327,-0.693898,-0.680454,-0.681896,-0.683338,-0.701443,-0.708654,-0.692584,-0.700368,-0.690572,-0.690155,-0.662639,-0.633561,-0.464165,-0.184291,-0.574943,-0.651630,-0.675794,-0.684089,-0.689766,-0.721353,-0.718540,-0.724040,-0.725668,-0.715402,-0.719089,-0.715861,-0.693467,-0.661957,-0.493527,-0.196626
-0.651444,-0.716123,-0.703380,-0.738539,-0.741112,-0.744012,-0.753594,-0.763128,-0.716918,-0.749197,-0.748960,-0.743073,-0.714222,-0.687326,-0.505184,-0.208749,-0.620163,-0.691350,-0.723142,-0.731041,-0.748060,-0.762372,-0.766640,-0.767963,-0.772362,-0.762733,-0.767798,-0.762026,-0.737532,-0.707886,-0.550115,-0.254820
-0.645778,-0.706529,-0.729463,-0.737549,-0.744838,-0.743079,-0.747470,-0.760888,-0.710745,-0.745981,-0.745722,-0.740607,-0.705221,-0.673337,-0.482458,-0.170494,-0.612119,-0.694715,-0.723707,-0.734025,-0.748056,-0.755115,-0.769807,-0.765275,-0.770549,-0.754107,-0.758583,-0.754240,-0.720466,-0.691590,-0.522164,-0.189815
-0.675986,-0.734695,-0.744137,-0.761301,-0.764755,-0.760422,-0.771717,-0.779500,-0.738028,-0.765831,-0.766236,-0.764058,-0.731775,-0.701620,-0.510540,-0.214302,-0.641942,-0.718191,-0.746875,-0.750533,-0.769183,-0.777665,-0.785685,-0.779826,-0.787864,-0.773718,-0.778799,-0.777193,-0.749372,-0.719870,-0.545786,-0.218815
-0.645294,-0.718861,-0.726023,-0.743651,-0.749491,-0.741894,-0.752944,-0.761799,-0.712547,-0.747269,-0.747188,-0.735615,-0.680631,-0.638384,-0.384302,-0.026967,-0.622647,-0.708083,-0.735923,-0.738049,-0.753676,-0.764301,-0.766614,-0.765742,-0.775607,-0.761153,-0.757821,-0.754193,-0.710184,-0.674417,-0.452382,-0.048055
-0.617241,-0.707249,-0.715509,-0.735438,-0.743360,-0.735917,-0.748782,-0.752593,-0.732406,-0.755031,-0.746726,-0.733079,-0.702184,-0.675836,-0.500586,-0.265550,-0.609100,-0.683654,-0.717515,-0.727667,-0.741063,-0.759039,-0.758444,-0.762307,-0.769466,-0.749723,-0.744461,-0.745335,-0.724965,-0.701874,-0.545595,-0.256644
-0.620896,-0.698068,-0.726479,-0.744094,-0.738841,-0.742026,-0.750659,-0.760289,-0.721781,-0.756509,-0.746997,-0.745445,-0.720531,-0.699703,-0.541422,-0.294290,-0.606470,-0.689503,-0.721394,-0.731535,-0.748389,-0.758288,-0.770937,-0.766159,-0.769495,-0.763471,-0.771695,-0.766836,-0.747067,-0.727968,-0.580695,-0.323595
-0.667175,-0.724874,-0.737217,-0.752309,-0.755754,-0.755688,-0.758463,-0.769352,-0.731122,-0.763103,-0.765581,-0.762171,-0.734202,-0.712590,-0.554216,-0.315141,-0.626063,-0.708910,-0.734518,-0.741826,-0.755565,-0.765769,-0.774628,-0.773409,-0.786619,-0.773578,-0.773188,-0.779457,-0.749020,-0.727744,-0.588106,-0.334404
-0.655534,-0.719141,-0.732230,-0.752647,-0.753455,-0.751178,-0.754014,-0.770308,-0.739981,-0.766595,-0.767291,-0.761189,-0.730629,-0.709395,-0.549555,-0.301233,-0.619433,-0.700138,-0.730481,-0.736420,-0.754351,-0.767964,-0.780642,-0.775826,-0.775902,-0.774349,-0.778294,-0.778994,-0.746457,-0.723057,-0.582797,-0.336309
-0.677939,-0.726909,-0.740112,-0.748386,-0.759547,-0.751263,-0.754908,-0.768833,-0.732845,-0.760915,-0.770830,-0.759629,-0.734133,-0.717150,-0.565402,-0.313905,-0.639919,-0.711748,-0.738875,-0.740728,-0.760137,-0.764622,-0.773818,-0.774021,-0.785481,-0.775204,-0.775110,-0.780367,-0.754295,-0.733288,-0.604003,-0.382714
-0.677399,-0.736799,-0.750442,-0.768127,-0.770587,-0.768658,-0.772830,-0.783278,-0.748356,-0.776815,-0.776756,-0.773168,-0.739703,-0.718032,-0.562348,-0.330936,-0.644030,-0.723540,-0.752976,-0.755735,-0.769786,-0.781258,-0.792103,-0.788348,-0.796305,-0.785033,-0.788244,-0.793945,-0.761122,-0.737637,-0.604087,-0.386637
-0.645763,-0.713274,-0.734067,-0.745462,-0.755142,-0.753654,-0.756951,-0.754719,-0.738647,-0.767490,-0.762542,-0.764645,-0.735544,-0.713090,-0.560231,-0.338685,-0.631303,-0.701589,-0.730684,-0.732492,-0.752212,-0.757846,-0.774543,-0.775912,-0.776637,-0.777002,-0.778366,-0.782485,-0.748706,-0.727184,-0.589580,-0.357497
-0.654916,-0.707868,-0.729332,-0.728219,-0.734275,-0.740887,-0.735637,-0.751375,-0.722394,-0.745664,-0.755184,-0.750896,-0.716269,-0.691261,-0.539828,-0.299940,-0.612894,-0.693418,-0.726359,-0.738053,-0.740165,-0.744569,-0.759846,-0.761789,-0.765149,-0.766892,-0.760841,-0.760744,-0.732670,-0.709975,-0.571229,-0.345955
-0.653972,-0.716065,-0.732993,-0.752157,-0.753813,-0.755986,-0.756199,-0.760520,-0.731739,-0.757276,-0.758644,-0.752394,-0.723574,-0.693188,-0.521991,-0.273626,-0.620067,-0.703420,-0.737382,-0.739291,-0.757431,-0.759795,-0.776570,-0.772214,-0.781737,-0.772024,-0.778934,-0.781052,-0.742664,-0.718451,-0.560424,-0.304950
-0.653801,-0.732534,-0.755010,-0.768340,-0.774887,-0.779309,-0.779183,-0.784423,-0.753719,-0.779985,-0.779984,-0.770232,-0.745288,-0.708350,-0.529648,-0.288028,-0.646717,-0.726268,-0.756474,-0.758329,-0.773089,-0.778621,-0.791383,-0.793336,-0.805902,-0.796386,-0.794443,-0.794875,-0.757500,-0.727526,-0.577313,-0.337022
-0.665197,-0.746774,-0.760999,-0.776050,-0.782726,-0.786638,-0.783368,-0.790413,-0.759419,-0.789381,-0.780995,-0.774189,-0.729626,-0.681340,-0.416065,-0.047372,-0.651096,-0.725924,-0.766104,-0.766956,-0.785232,-0.788097,-0.802603,-0.801812,-0.811947,-0.792257,-0.800075,-0.799652,-0.741257,-0.701499,-0.484662,-0.145076
-0.699581,-0.764873,-0.779648,-0.785824,-0.799515,-0.797077,-0.797926,-0.807519,-0.782157,-0.803704,-0.791181,-0.793749,-0.771193,-0.735826,-0.593400,-0.413108,-0.678867,-0.753873,-0.783659,-0.784663,-0.796193,-0.803568,-0.814857,-0.814459,-0.824648,-0.808914,-0.811107,-0.809954,-0.778311,-0.749844,-0.615040,-0.391754
-0.720598,-0.764648,-0.768856,-0.782925,-0.784616,-0.795434,-0.788576,-0.797949,-0.772610,-0.797918,-0.795334,-0.795549,-0.773338,-0.748899,-0.633043,-0.458179,-0.703013,-0.751668,-0.772914,-0.778180,-0.786824,-0.795543,-0.802298,-0.806751,-0.812945,-0.797445,-0.808763,-0.806529,-0.785866,-0.771521,-0.656357,-0.468723
-0.639036,-0.699791,-0.702636,-0.736992,-0.745873,-0.756671,-0.748175,-0.764194,-0.726954,-0.752997,-0.747567,-0.746473,-0.728099,-0.705060,-0.603913,-0.454156,-0.633015,-0.706990,-0.734010,-0.729212,-0.749260,-0.757184,-0.764475,-0.766421,-0.779075,-0.780462,-0.775287,-0.753283,-0.745888,-0.725697,-0.617562,-0.436515
-0.710279,-0.766689,-0.778735,-0.784519,-0.793953,-0.797496,-0.791500,-0.803548,-0.776221,-0.801324,-0.796079,-0.791971,-0.768327,-0.740564,-0.610941,-0.416573,-0.690777,-0.755655,-0.783507,-0.779185,-0.796826,-0.799465,-0.810014,-0.809314,-0.821140,-0.814062,-0.814385,-0.805479,-0.785455,-0.763879,-0.641143,-0.446720
-0.715584,-0.758144,-0.762725,-0.775416,-0.793764,-0.792847,-0.782625,-0.795969,-0.774887,-0.787973,-0.783643,-0.774993,-0.760709,-0.730054,-0.611250,-0.416722,-0.705720,-0.752908,-0.780452,-0.772733,-0.786428,-0.794583,-0.798228,-0.808776,-0.811770,-0.801216,-0.806436,-0.798520,-0.775604,-0.754284,-0.633885,-0.424315
-0.726962,-0.756300,-0.769062,-0.780696,-0.786914,-0.785654,-0.779357,-0.792971,-0.790244,-0.803597,-0.789350,-0.789215,-0.775015,-0.739139,-0.621035,-0.461156,-0.710778,-0.752149,-0.781308,-0.779040,-0.794323,-0.787847,-0.801761,-0.804266,-0.817703,-0.807453,-0.804037,-0.793768,-0.773918,-0.757336,-0.642680,-0.445982
-0.742483,-0.788544,-0.786096,-0.804521,-0.818541,-0.812781,-0.808981,-0.815129,-0.802921,-0.819877,-0.814686,-0.808853,-0.795262,-0.775207,-0.674868,-0.522487,-0.732362,-0.780828,-0.802548,-0.803722,-0.813016,-0.816554,-0.826140,-0.829894,-0.836904,-0.837402,-0.829732,-0.827851,-0.809591,-0.794757,-0.689878,-0.506500
-0.743245,-0.784934,-0.788810,-0.807728,-0.818508,-0.822137,-0.813812,-0.823937,-0.801085,-0.822033,-0.820856,-0.813149,-0.802771,-0.779970,-0.683594,-0.531511,-0.733415,-0.782083,-0.804519,-0.804418,-0.816408,-0.818147,-0.828682,-0.832669,-0.841173,-0.837590,-0.837643,-0.832147,-0.815154,-0.800752,-0.702571,-0.501213
-0.723361,-0.777872,-0.776159,-0.802165,-0.815560,-0.816983,-0.810880,-0.819707,-0.798075,-0.817445,-0.814871,-0.801227,-0.790221,-0.768254,-0.661239,-0.515215,-0.704629,-0.765536,-0.794118,-0.798693,-0.812422,-0.813835,-0.826236,-0.827927,-0.836591,-0.835558,-0.832146,-0.828426,-0.805599,-0.794214,-0.687030,-0.494113
-0.707545,-0.765001,-0.761146,-0.789082,-0.800941,-0.806084,-0.800635,-0.809569,-0.782853,-0.800699,-0.805266,-0.791959,-0.778245,-0.759304,-0.656319,-0.515055,-0.685425,-0.753963,-0.782003,-0.783723,-0.792192,-0.800972,-0.812185,-0.816713,-0.820130,-0.817641,-0.815663,-0.816736,-0.795940,-0.781494,-0.679579,-0.462186
-0.704981,-0.765170,-0.758706,-0.784095,-0.803514,-0.807079,-0.795282,-0.809081,-0.785013,-0.799356,-0.798485,-0.787496,-0.779772,-0.757512,-0.656055,-0.508167,-0.697483,-0.748117,-0.782984,-0.788722,-0.795028,-0.797715,-0.809577,-0.814015,-0.822727,-0.819795,-0.812018,-0.814522,-0.788225,-0.777441,-0.676105,-0.473108
-0.688304,-0.748978,-0.742671,-0.773397,-0.782992,-0.784508,-0.785716,-0.798581,-0.766181,-0.781114,-0.783275,-0.773557,-0.763143,-0.743689,-0.642740,-0.491366,-0.680670,-0.740024,-0.769278,-0.767126,-0.775318,-0.782234,-0.794429,-0.799096,-0.792094,-0.796760,-0.788802,-0.795366,-0.777001,-0.762813,-0.668346,-0.467401
-0.676554,-0.731459,-0.714477,-0.744242,-0.760815,-0.755643,-0.750748,-0.768360,-0.748381,-0.766887,-0.757407,-0.749415,-0.741864,-0.720946,-0.616122,-0.471887,-0.653610,-0.718568,-0.738676,-0.736759,-0.749522,-0.755285,-0.772192,-0.773065,-0.782249,-0.773223,-0.763860,-0.770348,-0.756101,-0.728858,-0.638772,-0.424447
-0.704911,-0.768913,-0.768764,-0.784282,-0.804604,-0.814163,-0.810105,-0.817596,-0.786746,-0.808174,-0.805330,-0.789496,-0.775391,-0.748733,-0.627578,-0.459818,-0.681293,-0.754473,-0.783965,-0.795392,-0.796481,-0.804942,-0.815226,-0.824876,-0.833087,-0.826002,-0.822114,-0.813299,-0.786566,-0.768923,-0.662140,-0.432599
-0.712125,-0.780643,-0.775960,-0.799000,-0.811682,-0.821087,-0.810648,-0.820771,-0.799212,-0.811975,-0.814155,-0.801727,-0.789387,-0.762227,-0.632577,-0.481337,-0.696111,-0.766547,-0.795225,-0.803428,-0.805913,-0.815384,-0.822285,-0.829041,-0.830373,-0.832404,-0.822789,-0.824665,-0.796103,-0.782910,-0.664102,-0.415343
-0.707466,-0.772361,-0.771149,-0.796801,-0.810983,-0.816582,-0.812813,-0.816715,-0.784648,-0.807015,-0.809086,-0.798279,-0.779253,-0.763744,-0.646546,-0.500796,-0.684218,-0.762958,-0.790896,-0.791210,-0.803386,-0.813969,-0.821574,-0.823482,-0.830609,-0.831280,-0.822023,-0.818613,-0.796113,-0.781539,-0.677188,-0.478322
-0.722397,-0.783079,-0.790038,-0.805190,-0.820975,-0.826389,-0.822247,-0.825908,-0.806736,-0.824522,-0.824675,-0.813351,-0.802788,-0.780737,-0.666736,-0.504400,-0.714811,-0.772719,-0.802831,-0.808243,-0.812170,-0.818739,-0.831085,-0.841280,-0.844140,-0.834370,-0.832926,-0.837208,-0.808826,-0.800907,-0.704452,-0.519181
-0.716187,-0.772385,-0.774411,-0.794430,-0.808989,-0.820502,-0.814103,-0.821828,-0.796026,-0.809510,-0.808612,-0.798521,-0.787772,-0.761794,-0.657676,-0.521740,-0.710622,-0.765453,-0.796151,-0.797900,-0.809540,-0.812900,-0.821804,-0.832097,-0.834726,-0.829323,-0.829499,-0.822522,-0.804349,-0.784673,-0.683904,-0.483309
-0.702386,-0.753992,-0.758656,-0.766770,-0.792500,-0.802604,-0.794026,-0.805909,-0.783628,-0.799229,-0.798513,-0.787841,-0.774984,-0.756323,-0.654455,-0.507094,-0.685284,-0.739272,-0.769483,-0.775171,-0.780028,-0.785175,-0.797000,-0.810143,-0.819524,-0.816789,-0.815412,-0.808212,-0.786125,-0.777049,-0.669044,-0.482059
-0.742335,-0.803743,-0.786901,-0.821791,-0.837222,-0.846243,-0.840032,-0.845194,-0.810501,-0.833057,-0.829870,-0.816599,-0.803592,-0.782118,-0.670326,-0.520163,-0.736088,-0.790700,-0.823816,-0.824471,-0.833893,-0.837578,-0.845854,-0.854024,-0.856872,-0.849689,-0.846114,-0.840274,-0.819882,-0.809098,-0.704079,-0.511891
-0.743952,-0.802443,-0.791490,-0.816481,-0.836349,-0.846995,-0.839131,-0.844132,-0.818836,-0.834298,-0.831008,-0.817754,-0.805216,-0.782457,-0.671717,-0.525001,-0.738778,-0.795264,-0.823906,-0.824400,-0.833905,-0.836198,-0.845125,-0.852292,-0.858210,-0.847917,-0.846948,-0.839733,-0.819825,-0.809945,-0.704563,-0.512232
-0.742797,-0.801570,-0.788550,-0.804437,-0.830230,-0.837336,-0.836427,-0.838802,-0.814487,-0.830987,-0.826361,-0.811526,-0.801324,-0.777207,-0.655204,-0.506991,-0.720916,-0.778673,-0.815120,-0.816926,-0.830652,-0.828021,-0.836980,-0.850398,-0.850562,-0.846759,-0.843989,-0.830199,-0.815564,-0.801070,-0.690657,-0.497306
-0.632881,-0.697275,-0.664679,-0.717372,-0.740442,-0.743574,-0.746526,-0.747217,-0.751399,-0.753598,-0.742968,-0.722994,-0.710160,-0.671423,-0.542832,-0.396186,-0.606553,-0.675496,-0.714278,-0.714533,-0.751504,-0.752913,-0.754679,-0.760330,-0.766071,-0.760742,-0.755760,-0.749322,-0.721263,-0.704309,-0.602917,-0.409321
-0.653080,-0.734805,-0.725032,-0.775944,-0.780854,-0.781630,-0.792231,-0.797688,-0.747442,-0.785319,-0.789849,-0.763432,-0.733775,-0.700142,-0.585567,-0.430007,-0.639717,-0.719549,-0.751355,-0.762330,-0.779089,-0.795495,-0.795305,-0.790888,-0.800594,-0.792528,-0.799182,-0.788670,-0.753751,-0.738206,-0.636520,-0.430061
-0.666687,-0.730135,-0.733373,-0.759189,-0.778357,-0.785021,-0.795688,-0.798003,-0.785577,-0.795872,-0.795898,-0.797647,-0.772964,-0.744908,-0.586324,-0.361339,-0.646518,-0.728588,-0.752907,-0.773459,-0.777443,-0.787517,-0.807086,-0.805764,-0.815434,-0.825693,-0.808815,-0.806012,-0.789027,-0.765830,-0.632016,-0.379618
-0.659979,-0.728220,-0.738131,-0.760360,-0.781183,-0.786539,-0.797484,-0.799986,-0.783392,-0.797805,-0.796537,-0.799869,-0.773179,-0.746607,-0.579492,-0.341010,-0.639286,-0.728520,-0.756800,-0.771777,-0.783226,-0.788625,-0.812511,-0.808156,-0.814389,-0.830364,-0.812505,-0.806696,-0.790127,-0.765275,-0.621570,-0.358081
-0.674383,-0.731146,-0.732768,-0.762245,-0.783406,-0.787352,-0.799423,-0.804175,-0.786487,-0.799759,-0.795265,-0.799664,-0.773426,-0.748184,-0.581213,-0.348804,-0.656305,-0.731373,-0.757375,-0.776311,-0.781521,-0.787870,-0.812524,-0.810123,-0.814036,-0.827099,-0.815731,-0.805333,-0.790046,-0.766528,-0.620440,-0.348886
-0.651554,-0.707173,-0.712054,-0.737151,-0.756617,-0.755089,-0.766235,-0.774907,-0.768826,-0.770652,-0.778941,-0.779595,-0.755654,-0.733992,-0.585531,-0.366655,-0.634193,-0.705906,-0.729607,-0.742981,-0.754682,-0.756098,-0.773380,-0.772182,-0.777135,-0.797699,-0.783816,-0.778173,-0.762573,-0.747214,-0.622041,-0.372744
-0.648740,-0.714491,-0.735242,-0.747582,-0.766830,-0.773912,-0.784384,-0.784209,-0.778838,-0.786908,-0.783831,-0.788148,-0.757604,-0.731190,-0.575506,-0.357911,-0.632989,-0.707888,-0.744927,-0.755523,-0.771783,-0.773420,-0.795331,-0.791801,-0.797250,-0.813581,-0.797719,-0.802999,-0.767902,-0.747167,-0.608343,-0.364438
-0.663161,-0.724237,-0.737315,-0.759126,-0.778240,-0.781769,-0.790202,-0.796277,-0.795342,-0.799242,-0.794714,-0.794324,-0.766471,-0.741586,-0.576962,-0.349611,-0.646254,-0.725126,-0.751927,-0.769017,-0.780804,-0.787659,-0.807144,-0.802961,-0.811039,-0.820482,-0.807313,-0.802358,-0.782086,-0.758487,-0.619627,-0.369536
-0.640195,-0.711171,-0.719227,-0.735493,-0.759101,-0.763970,-0.770444,-0.775808,-0.782863,-0.785773,-0.774580,-0.774114,-0.748544,-0.725345,-0.562316,-0.336916,-0.633917,-0.711242,-0.742326,-0.758518,-0.763261,-0.768965,-0.790789,-0.792221,-0.794604,-0.810416,-0.793558,-0.788472,-0.769509,-0.746353,-0.613358,-0.369267
-0.644753,-0.711043,-0.715829,-0.741548,-0.764955,-0.763246,-0.773708,-0.783996,-0.773009,-0.784825,-0.777233,-0.787166,-0.754729,-0.731489,-0.575638,-0.348024,-0.629763,-0.702619,-0.734157,-0.754282,-0.763464,-0.768004,-0.785272,-0.790883,-0.795564,-0.807388,-0.797808,-0.784485,-0.768991,-0.751033,-0.618584,-0.365699
-0.652558,-0.724591,-0.730466,-0.752186,-0.773724,-0.775069,-0.789689,-0.792994,-0.788745,-0.795030,-0.789933,-0.794931,-0.761140,-0.732955,-0.565417,-0.325667,-0.637262,-0.720167,-0.750112,-0.762878,-0.778523,-0.784518,-0.794434,-0.795711,-0.809008,-0.810120,-0.809110,-0.795797,-0.774796,-0.753219,-0.609400,-0.352686
-0.647249,-0.724940,-0.729140,-0.750590,-0.773857,-0.776168,-0.786721,-0.793496,-0.787455,-0.794769,-0.786721,-0.791063,-0.762467,-0.734151,-0.549297,-0.299225,-0.633155,-0.719136,-0.749027,-0.762447,-0.775189,-0.782241,-0.802591,-0.800229,-0.808019,-0.819410,-0.803921,-0.799336,-0.775599,-0.747636,-0.587647,-0.303974
-0.622464,-0.700902,-0.708421,-0.722638,-0.751758,-0.756264,-0.760609,-0.774645,-0.760062,-0.769275,-0.757771,-0.763111,-0.728354,-0.700555,-0.517698,-0.260504,-0.609688,-0.691842,-0.726966,-0.731404,-0.751351,-0.754578,-0.776158,-0.779241,-0.780034,-0.794192,-0.780053,-0.766610,-0.743231,-0.711402,-0.568014,-0.312095
-0.548594,-0.652758,-0.664376,-0.686774,-0.712863,-0.714494,-0.723843,-0.728417,-0.712320,-0.731826,-0.727662,-0.728579,-0.696257,-0.665152,-0.467825,-0.208089,-0.526653,-0.649651,-0.677596,-0.697141,-0.732516,-0.719207,-0.734937,-0.742533,-0.742783,-0.760490,-0.744448,-0.730339,-0.711822,-0.692379,-0.539986,-0.280640
-0.636251,-0.724046,-0.733515,-0.748022,-0.768995,-0.773091,-0.783073,-0.785643,-0.777027,-0.784765,-0.777615,-0.780275,-0.755421,-0.729142,-0.535626,-0.256705,-0.632072,-0.721112,-0.746703,-0.761592,-0.771939,-0.779035,-0.793840,-0.794616,-0.801539,-0.811447,-0.795308,-0.790110,-0.767237,-0.747302,-0.599553,-0.348110
-0.621346,-0.661657,-0.668478,-0.684953,-0.703487,-0.721180,-0.736337,-0.743322,-0.739865,-0.743842,-0.729588,-0.739250,-0.719791,-0.696260,-0.549676,-0.357567,-0.587506,-0.641075,-0.674676,-0.691596,-0.713722,-0.723535,-0.747621,-0.743887,-0.760803,-0.774017,-0.759311,-0.746870,-0.733837,-0.703850,-0.592534,-0.388408
-0.693993,-0.763205,-0.771343,-0.786169,-0.799714,-0.800155,-0.802244,-0.806593,-0.794697,-0.810581,-0.808382,-0.801639,-0.774529,-0.750651,-0.599133,-0.404723,-0.680858,-0.753921,-0.781522,-0.792337,-0.800254,-0.806577,-0.820136,-0.813359,-0.822998,-0.835875,-0.810461,-0.809636,-0.783179,-0.766499,-0.633162,-0.408429
-0.669347,-0.737416,-0.730687,-0.760539,-0.774473,-0.766007,-0.784718,-0.785496,-0.769106,-0.777424,-0.768230,-0.769280,-0.753660,-0.749823,-0.627335,-0.460902,-0.660062,-0.734577,-0.752635,-0.760714,-0.767751,-0.778778,-0.787250,-0.787527,-0.789854,-0.806003,-0.790597,-0.777850,-0.757315,-0.752441,-0.655544,-0.453116
-0.688485,-0.756109,-0.768851,-0.774872,-0.791554,-0.787490,-0.795153,-0.799780,-0.783398,-0.802662,-0.799318,-0.792814,-0.775080,-0.758891,-0.628269,-0.451294,-0.679788,-0.747432,-0.772371,-0.787366,-0.790280,-0.799013,-0.805276,-0.807452,-0.812776,-0.823740,-0.810821,-0.805953,-0.784122,-0.773340,-0.665396,-0.447582
-0.681086,-0.756114,-0.767384,-0.779086,-0.794427,-0.790873,-0.798469,-0.803914,-0.785633,-0.803460,-0.798427,-0.793137,-0.768072,-0.752488,-0.604033,-0.411753,-0.669987,-0.745717,-0.772176,-0.787147,-0.793443,-0.801311,-0.810255,-0.807433,-0.815520,-0.826744,-0.810178,-0.806966,-0.778304,-0.762614,-0.630377,-0.394373
-0.687970,-0.754139,-0.763711,-0.775639,-0.790956,-0.782741,-0.791176,-0.797906,-0.785276,-0.799971,-0.794825,-0.791736,-0.774815,-0.755514,-0.627537,-0.455459,-0.679343,-0.745496,-0.771667,-0.782322,-0.788561,-0.797393,-0.801859,-0.805029,-0.814385,-0.819329,-0.808405,-0.805172,-0.782645,-0.770455,-0.664467,-0.453795
-0.571556,-0.667283,-0.689592,-0.712263,-0.738206,-0.743101,-0.737321,-0.746485,-0.738584,-0.748461,-0.751625,-0.729490,-0.695522,-0.660433,-0.479768,-0.283028,-0.559196,-0.652409,-0.698057,-0.728324,-0.734855,-0.745770,-0.764090,-0.765908,-0.777533,-0.794759,-0.771710,-0.758077,-0.707095,-0.692353,-0.533999,-0.262242
-0.671122,-0.743874,-0.763858,-0.778365,-0.773413,-0.767518,-0.781352,-0.783547,-0.761606,-0.791408,-0.793897,-0.793380,-0.768905,-0.757786,-0.659728,-0.509148,-0.655395,-0.737688,-0.765633,-0.776469,-0.775212,-0.786062,-0.789132,-0.795214,-0.802863,-0.799939,-0.807202,-0.781885,-0.783497,-0.769054,-0.685601,-0.511319
-0.730652,-0.793358,-0.792102,-0.798398,-0.815288,-0.808036,-0.816065,-0.822839,-0.811593,-0.826286,-0.817930,-0.814264,-0.803750,-0.793212,-0.692531,-0.542206,-0.711075,-0.779513,-0.797726,-0.805612,-0.812058,-0.820875,-0.818206,-0.824853,-0.831427,-0.839882,-0.825932,-0.827777,-0.806085,-0.798132,-0.710400,-0.525997
-0.665810,-0.727825,-0.726517,-0.755356,-0.757065,-0.756243,-0.760439,-0.757793,-0.750275,-0.761477,-0.766061,-0.755221,-0.750903,-0.737741,-0.630003,-0.481766,-0.651461,-0.734921,-0.744000,-0.756681,-0.755659,-0.758688,-0.769145,-0.768867,-0.773960,-0.772802,-0.775750,-0.772379,-0.761078,-0.750044,-0.650567,-0.427108
-0.703383,-0.769649,-0.774978,-0.784164,-0.799945,-0.791930,-0.800249,-0.809205,-0.795267,-0.810437,-0.804253,-0.798592,-0.775341,-0.756408,-0.625947,-0.441764,-0.695843,-0.764968,-0.778995,-0.784642,-0.792394,-0.801194,-0.804121,-0.808841,-0.816195,-0.821398,-0.805459,-0.809211,-0.782249,-0.766826,-0.648113,-0.391572
-0.656899,-0.758052,-0.751268,-0.768718,-0.791751,-0.783668,-0.792360,-0.797202,-0.791639,-0.799648,-0.790097,-0.797871,-0.782488,-0.767518,-0.649342,-0.460216,-0.649617,-0.734625,-0.765055,-0.771880,-0.787167,-0.799204,-0.799836,-0.805765,-0.811010,-0.817860,-0.812888,-0.808579,-0.789296,-0.779137,-0.673426,-0.451823
-0.665678,-0.752844,-0.741657,-0.772199,-0.776577,-0.771299,-0.775999,-0.788601,-0.777406,-0.787949,-0.781088,-0.776243,-0.762263,-0.741129,-0.619682,-0.426466,-0.658338,-0.736706,-0.756832,-0.760783,-0.780514,-0.789531,-0.791006,-0.791251,-0.796842,-0.806609,-0.790032,-0.795305,-0.768428,-0.755463,-0.649901,-0.423959
-0.675588,-0.750587,-0.753658,-0.764226,-0.777658,-0.773732,-0.782086,-0.784093,-0.782296,-0.790845,-0.781373,-0.776624,-0.766678,-0.747658,-0.617746,-0.422967,-0.665695,-0.743228,-0.762823,-0.773942,-0.778408,-0.784357,-0.787746,-0.791527,-0.798855,-0.799519,-0.800761,-0.792368,-0.771141,-0.756719,-0.650999,-0.420386
-0.665619,-0.748368,-0.749147,-0.758919,-0.774512,-0.769396,-0.781013,-0.786377,-0.781313,-0.788363,-0.781094,-0.778101,-0.762380,-0.741470,-0.608223,-0.417823,-0.656092,-0.734212,-0.760101,-0.771266,-0.777483,-0.786109,-0.786626,-0.788004,-0.796436,-0.795559,-0.796148,-0.791844,-0.765938,-0.751843,-0.636375,-0.362756
-0.657842,-0.740811,-0.730215,-0.749496,-0.765311,-0.762359,-0.769617,-0.778134,-0.772582,-0.778100,-0.771447,-0.767819,-0.755303,-0.735607,-0.602315,-0.406024,-0.648412,-0.728342,-0.750811,-0.762156,-0.763491,-0.773552,-0.779831,-0.780035,-0.787051,-0.790420,-0.788698,-0.780887,-0.757393,-0.745758,-0.636272,-0.401735
-0.658466,-0.740952,-0.723896,-0.750942,-0.763455,-0.760648,-0.767768,-0.776706,-0.774062,-0.777163,-0.770151,-0.767791,-0.753834,-0.734443,-0.598724,-0.407369,-0.651145,-0.729604,-0.751566,-0.763119,-0.764149,-0.774522,-0.780937,-0.781078,-0.786876,-0.791553,-0.787297,-0.780085,-0.758265,-0.741135,-0.618258,-0.362743
-0.656808,-0.740216,-0.728651,-0.749689,-0.763304,-0.760857,-0.768590,-0.775788,-0.770919,-0.777482,-0.772370,-0.768127,-0.756184,-0.737656,-0.614209,-0.430939,-0.649367,-0.728014,-0.749686,-0.761416,-0.764568,-0.774010,-0.779495,-0.779497,-0.783992,-0.791071,-0.787691,-0.781484,-0.759008,-0.749702,-0.649334,-0.413909
-0.610657,-0.690489,-0.685789,-0.692292,-0.720348,-0.710030,-0.714957,-0.726317,-0.729417,-0.739916,-0.717779,-0.726765,-0.709353,-0.701439,-0.584952,-0.411979,-0.605579,-0.681827,-0.705714,-0.705288,-0.721281,-0.723843,-0.718125,-0.741067,-0.743877,-0.734392,-0.742994,-0.741645,-0.707526,-0.701566,-0.606044,-0.401416
-0.644903,-0.743259,-0.736469,-0.760328,-0.773299,-0.772246,-0.780299,-0.787241,-0.779875,-0.787465,-0.783432,-0.777086,-0.766400,-0.745005,-0.611055,-0.411741,-0.640529,-0.735603,-0.759335,-0.772410,-0.772368,-0.784996,-0.794785,-0.788250,-0.796934,-0.803336,-0.799385,-0.793448,-0.772310,-0.760264,-0.653853,-0.414382
-0.648591,-0.738677,-0.722864,-0.755261,-0.769664,-0.764324,-0.775404,-0.777508,-0.758393,-0.778391,-0.778445,-0.772983,-0.760318,-0.738345,-0.618600,-0.437314,-0.656560,-0.729132,-0.753226,-0.763422,-0.772978,-0.779138,-0.790814,-0.784252,-0.786304,-0.797228,-0.794689,-0.791622,-0.769245,-0.760044,-0.664014,-0.436773
-0.687640,-0.763524,-0.753247,-0.773280,-0.785060,-0.783260,-0.791092,-0.796522,-0.789703,-0.797343,-0.792697,-0.788292,-0.775389,-0.756761,-0.637045,-0.458889,-0.675298,-0.748720,-0.772147,-0.784818,-0.782206,-0.796407,-0.804576,-0.797048,-0.806193,-0.813058,-0.808338,-0.798495,-0.781174,-0.770884,-0.670089,-0.436877
-0.682722,-0.757486,-0.751172,-0.764837,-0.778598,-0.779111,-0.784816,-0.794484,-0.788035,-0.792746,-0.788041,-0.783795,-0.769413,-0.746152,-0.609315,-0.423406,-0.651329,-0.738620,-0.767064,-0.780350,-0.783185,-0.791462,-0.799291,-0.790350,-0.802463,-0.806546,-0.799923,-0.787855,-0.769443,-0.753255,-0.634059,-0.379030
-0.682529,-0.760135,-0.746689,-0.766662,-0.779553,-0.782864,-0.788210,-0.792822,-0.784650,-0.796517,-0.787572,-0.786134,-0.772508,-0.750484,-0.623903,-0.437307,-0.659703,-0.743200,-0.770189,-0.780380,-0.778586,-0.795103,-0.801110,-0.794979,-0.807442,-0.810162,-0.806042,-0.801088,-0.777653,-0.760675,-0.652361,-0.408250
-0.678259,-0.756457,-0.745009,-0.770361,-0.782496,-0.787180,-0.790745,-0.799259,-0.788173,-0.797746,-0.792900,-0.783299,-0.768955,-0.735105,-0.599137,-0.417604,-0.656823,-0.743221,-0.768803,-0.781133,-0.785930,-0.796614,-0.803540,-0.795882,-0.809377,-0.813351,-0.807389,-0.798306,-0.774529,-0.756781,-0.638111,-0.380513
-0.660877,-0.730253,-0.706805,-0.740521,-0.753549,-0.754748,-0.759089,-0.762183,-0.758405,-0.770606,-0.759138,-0.761373,-0.750778,-0.727980,-0.615863,-0.433323,-0.643644,-0.716395,-0.739186,-0.753623,-0.751896,-0.762389,-0.771595,-0.768759,-0.767791,-0.778951,-0.782263,-0.760570,-0.753431,-0.734666,-0.651922,-0.416947
-0.636388,-0.715743,-0.715940,-0.734354,-0.739359,-0.737731,-0.753724,-0.757581,-0.741709,-0.747566,-0.740089,-0.749282,-0.733083,-0.702941,-0.566966,-0.365332,-0.618691,-0.706922,-0.727360,-0.741256,-0.751143,-0.759392,-0.764178,-0.762668,-0.777739,-0.773891,-0.763639,-0.774187,-0.743498,-0.730866,-0.613152,-0.367147
-0.695756,-0.756613,-0.741684,-0.764918,-0.775509,-0.774862,-0.782002,-0.785604,-0.777272,-0.787493,-0.784212,-0.779328,-0.767612,-0.744296,-0.628837,-0.460758,-0.673539,-0.742117,-0.765080,-0.776389,-0.777132,-0.785069,-0.800741,-0.787378,-0.799254,-0.800075,-0.799540,-0.789911,-0.769193,-0.757592,-0.654210,-0.406315
-0.693674,-0.763383,-0.737290,-0.769848,-0.780927,-0.777464,-0.785844,-0.789638,-0.785811,-0.792326,-0.787676,-0.782696,-0.772213,-0.745749,-0.633354,-0.463246,-0.674400,-0.745892,-0.771221,-0.779633,-0.781540,-0.791712,-0.803430,-0.790612,-0.803389,-0.805880,-0.805058,-0.795775,-0.773242,-0.758291,-0.659081,-0.415193
-0.685752,-0.759785,-0.735281,-0.771661,-0.778839,-0.780440,-0.790283,-0.794055,-0.790708,-0.795296,-0.789121,-0.782688,-0.774654,-0.747754,-0.636361,-0.473418,-0.666791,-0.739428,-0.764082,-0.777864,-0.778044,-0.789838,-0.801271,-0.787262,-0.800886,-0.802499,-0.801740,-0.792966,-0.768711,-0.756658,-0.637777,-0.372279
-0.691762,-0.756324,-0.739176,-0.772371,-0.773059,-0.770117,-0.766997,-0.783150,-0.769058,-0.785074,-0.766530,-0.770668,-0.768879,-0.748359,-0.634325,-0.448611,-0.686753,-0.746204,-0.758671,-0.774990,-0.771067,-0.778682,-0.793663,-0.788737,-0.792833,-0.789441,-0.793949,-0.775815,-0.775136,-0.763467,-0.675129,-0.427469
-0.702614,-0.769886,-0.749056,-0.782325,-0.789248,-0.791133,-0.795727,-0.800050,-0.796073,-0.802019,-0.788747,-0.786417,-0.780172,-0.753536,-0.638029,-0.481160,-0.688730,-0.758509,-0.777059,-0.790063,-0.789978,-0.799033,-0.810329,-0.801129,-0.809409,-0.812570,-0.811022,-0.799264,-0.783216,-0.768438,-0.673888,-0.448892
-0.691887,-0.764519,-0.730451,-0.767463,-0.784124,-0.781331,-0.785465,-0.786790,-0.793987,-0.800534,-0.792800,-0.788840,-0.777993,-0.749146,-0.636066,-0.474936,-0.674032,-0.752582,-0.770053,-0.780661,-0.784384,-0.791917,-0.807597,-0.798237,-0.810575,-0.809196,-0.802261,-0.792466,-0.776401,-0.764306,-0.665799,-0.441086
-0.705233,-0.773352,-0.749061,-0.781825,-0.792599,-0.792514,-0.794701,-0.800603,-0.798523,-0.806326,-0.797876,-0.795667,-0.783400,-0.755523,-0.639992,-0.473718,-0.689113,-0.759318,-0.783380,-0.793698,-0.795700,-0.800841,-0.814864,-0.805798,-0.814833,-0.816889,-0.813007,-0.804422,-0.784317,-0.771794,-0.674901,-0.452053
-0.693630,-0.767176,-0.739756,-0.772967,-0.781811,-0.780953,-0.787865,-0.791376,-0.777658,-0.794070,-0.790532,-0.784249,-0.766694,-0.740712,-0.621743,-0.454829,-0.676555,-0.752652,-0.772641,-0.791189,-0.787096,-0.797031,-0.808045,-0.796488,-0.805483,-0.801111,-0.799526,-0.795621,-0.773769,-0.755255,-0.651822,-0.406710
-0.657012,-0.729328,-0.707873,-0.736152,-0.751591,-0.757835,-0.756924,-0.760490,-0.770593,-0.771946,-0.760950,-0.752205,-0.731662,-0.703179,-0.562977,-0.376451,-0.631487,-0.708106,-0.742767,-0.755083,-0.758949,-0.763784,-0.775268,-0.769011,-0.779663,-0.779286,-0.777053,-0.762150,-0.741299,-0.715206,-0.603942,-0.364319
-0.654480,-0.717943,-0.711118,-0.724529,-0.748487,-0.744787,-0.752882,-0.753427,-0.757249,-0.757974,-0.742156,-0.744750,-0.710534,-0.690641,-0.555547,-0.381372,-0.629626,-0.704778,-0.739747,-0.749216,-0.751969,-0.759139,-0.770860,-0.771401,-0.771065,-0.774197,-0.766966,-0.749393,-0.733713,-0.710217,-0.602371,-0.343521
-0.689175,-0.740746,-0.711001,-0.747440,-0.759220,-0.766548,-0.765986,-0.769932,-0.767796,-0.771533,-0.765725,-0.757009,-0.737380,-0.713538,-0.584787,-0.458777,-0.664499,-0.731552,-0.753210,-0.762784,-0.756855,-0.768782,-0.785460,-0.783777,-0.784948,-0.773261,-0.778654,-0.766915,-0.743224,-0.723975,-0.610775,-0.361182
-0.672241,-0.726534,-0.706104,-0.738904,-0.750150,-0.762773,-0.761472,-0.772042,-0.766436,-0.774395,-0.763647,-0.752535,-0.738670,-0.720905,-0.611775,-0.462990,-0.652589,-0.714059,-0.748122,-0.752808,-0.761215,-0.767760,-0.780413,-0.781910,-0.783680,-0.789658,-0.781947,-0.769612,-0.759461,-0.739010,-0.659802,-0.478698
-0.708352,-0.769202,-0.745172,-0.786121,-0.792964,-0.798164,-0.794130,-0.803901,-0.798741,-0.810876,-0.798880,-0.796946,-0.780423,-0.753235,-0.625394,-0.467147,-0.699892,-0.763209,-0.783410,-0.793371,-0.796736,-0.802680,-0.819435,-0.817612,-0.817741,-0.822012,-0.814247,-0.802858,-0.792498,-0.766336,-0.670803,-0.470027
-0.730849,-0.783953,-0.774168,-0.794933,-0.806781,-0.814208,-0.808362,-0.814859,-0.810454,-0.824049,-0.814426,-0.811749,-0.798403,-0.774648,-0.675344,-0.536314,-0.726342,-0.780814,-0.796582,-0.807173,-0.814262,-0.815687,-0.819512,-0.824856,-0.826179,-0.832604,-0.825357,-0.813425,-0.806171,-0.786658,-0.702802,-0.516110
-0.737820,-0.785907,-0.773099,-0.795915,-0.806846,-0.812958,-0.811124,-0.815341,-0.810966,-0.825167,-0.815658,-0.810608,-0.795060,-0.774061,-0.656187,-0.482400,-0.723507,-0.780513,-0.801059,-0.808745,-0.818111,-0.815768,-0.823120,-0.828130,-0.831353,-0.830072,-0.823468,-0.814060,-0.804588,-0.782928,-0.689430,-0.481974
-0.738277,-0.779515,-0.764791,-0.790619,-0.799936,-0.799953,-0.805599,-0.809233,-0.807775,-0.815104,-0.810047,-0.801026,-0.789816,-0.760743,-0.647775,-0.484290,-0.727511,-0.773395,-0.794169,-0.801900,-0.810773,-0.808429,-0.819435,-0.822170,-0.825051,-0.825440,-0.814703,-0.807256,-0.797845,-0.780629,-0.695143,-0.485034
-0.751160,-0.791493,-0.780865,-0.800700,-0.808906,-0.815771,-0.813296,-0.811313,-0.813719,-0.828218,-0.818289,-0.813589,-0.788735,-0.764132,-0.619156,-0.447339,-0.735196,-0.786750,-0.806817,-0.813849,-0.822327,-0.822013,-0.828299,-0.829671,-0.832838,-0.834334,-0.825702,-0.818235,-0.803833,-0.770927,-0.669051,-0.443119
-0.754100,-0.790700,-0.779723,-0.798387,-0.809050,-0.814260,-0.813079,-0.815714,-0.805084,-0.827686,-0.817274,-0.813319,-0.792222,-0.764359,-0.630503,-0.454086,-0.733224,-0.787343,-0.805733,-0.813196,-0.821280,-0.820277,-0.826314,-0.831591,-0.834203,-0.834108,-0.827685,-0.816924,-0.807178,-0.780593,-0.674770,-0.457471
-0.728498,-0.772817,-0.778699,-0.793698,-0.799191,-0.802738,-0.805515,-0.807334,-0.808184,-0.819697,-0.808071,-0.798523,-0.782539,-0.760600,-0.656471,-0.513238,-0.716910,-0.769984,-0.789945,-0.800349,-0.809449,-0.809910,-0.816825,-0.823659,-0.825273,-0.819393,-0.818011,-0.807672,-0.796647,-0.773859,-0.695590,-0.518413
-0.700647,-0.752764,-0.744149,-0.770116,-0.779909,-0.791135,-0.794564,-0.797437,-0.791151,-0.802662,-0.799841,-0.787471,-0.771138,-0.750507,-0.646351,-0.498748,-0.688929,-0.739384,-0.770132,-0.780594,-0.789183,-0.787582,-0.798733,-0.806594,-0.812721,-0.788150,-0.806763,-0.791881,-0.783713,-0.756722,-0.676641,-0.503072
-0.739294,-0.781153,-0.777546,-0.794359,-0.803253,-0.808644,-0.809955,-0.810525,-0.807494,-0.823668,-0.814754,-0.807655,-0.792421,-0.770564,-0.662400,-0.510282,-0.728275,-0.775258,-0.797538,-0.807861,-0.814586,-0.814120,-0.821546,-0.827765,-0.831313,-0.824589,-0.825472,-0.813294,-0.805637,-0.781386,-0.697341,-0.505716
-0.718761,-0.764654,-0.764625,-0.787106,-0.786996,-0.799000,-0.798065,-0.797886,-0.801108,-0.815713,-0.804691,-0.794983,-0.780719,-0.757875,-0.647950,-0.496212,-0.709605,-0.762473,-0.786472,-0.797850,-0.805624,-0.809021,-0.808257,-0.818047,-0.810861,-0.808130,-0.811460,-0.801718,-0.793909,-0.773148,-0.684332,-0.496596
-0.730533,-0.761948,-0.766148,-0.774725,-0.785934,-0.792159,-0.796291,-0.790546,-0.783382,-0.801061,-0.802108,-0.794369,-0.774200,-0.749380,-0.650649,-0.498793,-0.719599,-0.760885,-0.779172,-0.787445,-0.795372,-0.796601,-0.805893,-0.811589,-0.810466,-0.799311,-0.805355,-0.785793,-0.786619,-0.766154,-0.681018,-0.488191
-0.710841,-0.773849,-0.764067,-0.781575,-0.793584,-0.799661,-0.800176,-0.797355,-0.796146,-0.812580,-0.808174,-0.799728,-0.783113,-0.767269,-0.650056,-0.485864,-0.716158,-0.769204,-0.791987,-0.799345,-0.806153,-0.806262,-0.810083,-0.818808,-0.818352,-0.804603,-0.817926,-0.807745,-0.797673,-0.779165,-0.688542,-0.476382
-0.728382,-0.782424,-0.780737,-0.788833,-0.800398,-0.800855,-0.805547,-0.801612,-0.795880,-0.814888,-0.813812,-0.805618,-0.783808,-0.764077,-0.656083,-0.504713,-0.732830,-0.776391,-0.797133,-0.801689,-0.809557,-0.810579,-0.811826,-0.822282,-0.824967,-0.809831,-0.823167,-0.810033,-0.803045,-0.776977,-0.690560,-0.479695
-0.722095,-0.766819,-0.765811,-0.775266,-0.789375,-0.789815,-0.795033,-0.793194,-0.780140,-0.802745,-0.801569,-0.792704,-0.772889,-0.760135,-0.650669,-0.479742,-0.727884,-0.768820,-0.787793,-0.791050,-0.799533,-0.800675,-0.799495,-0.812625,-0.812308,-0.801486,-0.811748,-0.801835,-0.793002,-0.774882,-0.690639,-0.484410
-0.743037,-0.792738,-0.793723,-0.805420,-0.815515,-0.812454,-0.820072,-0.818879,-0.815393,-0.830627,-0.825727,-0.821847,-0.804664,-0.787342,-0.660001,-0.469400,-0.745605,-0.790359,-0.813747,-0.815949,-0.822621,-0.824742,-0.824684,-0.833815,-0.835858,-0.830360,-0.839040,-0.831823,-0.821928,-0.801516,-0.711138,-0.490009
-0.737373,-0.776543,-0.788071,-0.790256,-0.806603,-0.804781,-0.806670,-0.811962,-0.807565,-0.813283,-0.813832,-0.808682,-0.791323,-0.778863,-0.664508,-0.486812,-0.744927,-0.783835,-0.803318,-0.808955,-0.807953,-0.815012,-0.819072,-0.824304,-0.831688,-0.812563,-0.826939,-0.820224,-0.816520,-0.797106,-0.716218,-0.512613
-0.744699,-0.793699,-0.787457,-0.804190,-0.815705,-0.815332,-0.819714,-0.817450,-0.799180,-0.822412,-0.826570,-0.816610,-0.795344,-0.777562,-0.665778,-0.499842,-0.746134,-0.791248,-0.812867,-0.816184,-0.821561,-0.824984,-0.823691,-0.833453,-0.839918,-0.824816,-0.836316,-0.826216,-0.813885,-0.796112,-0.712217,-0.515269
-0.744715,-0.796288,-0.790559,-0.807892,-0.820097,-0.819142,-0.825749,-0.824752,-0.814798,-0.831719,-0.832078,-0.824156,-0.806043,-0.793610,-0.678162,-0.513418,-0.746585,-0.794499,-0.817808,-0.821760,-0.827991,-0.831655,-0.832257,-0.840505,-0.842693,-0.831255,-0.842157,-0.832240,-0.829103,-0.805188,-0.723942,-0.525394
-0.732841,-0.781447,-0.772964,-0.795468,-0.805941,-0.805543,-0.814586,-0.815430,-0.817976,-0.827308,-0.823668,-0.811129,-0.793004,-0.778641,-0.662046,-0.492194,-0.731602,-0.781876,-0.803055,-0.803995,-0.817270,-0.820778,-0.820997,-0.834459,-0.826806,-0.826262,-0.828325,-0.824055,-0.811450,-0.787361,-0.700815,-0.488232
-0.711259,-0.767245,-0.745596,-0.780188,-0.787464,-0.797547,-0.800725,-0.800932,-0.785879,-0.797789,-0.804225,-0.784979,-0.756059,-0.735125,-0.592746,-0.429394,-0.689650,-0.761211,-0.790141,-0.784771,-0.802393,-0.806868,-0.806067,-0.818272,-0.824993,-0.800835,-0.818011,-0.803229,-0.777285,-0.750502,-0.616833,-0.358984
-0.710171,-0.762317,-0.764691,-0.772551,-0.789913,-0.796144,-0.803747,-0.798950,-0.794746,-0.804741,-0.803921,-0.789563,-0.763824,-0.744126,-0.595579,-0.416440,-0.687816,-0.753766,-0.783079,-0.787795,-0.799708,-0.806137,-0.803205,-0.813659,-0.811819,-0.800031,-0.815356,-0.789502,-0.775791,-0.746868,-0.612345,-0.369428
-0.725565,-0.784294,-0.781664,-0.799409,-0.809766,-0.812010,-0.818552,-0.816915,-0.805914,-0.818355,-0.818761,-0.809557,-0.783082,-0.765305,-0.623617,-0.441974,-0.716014,-0.778182,-0.806569,-0.811741,-0.817927,-0.819616,-0.824797,-0.827828,-0.831934,-0.817036,-0.832871,-0.818896,-0.803392,-0.777358,-0.664276,-0.443884
-0.699145,-0.774917,-0.766519,-0.792609,-0.805555,-0.804200,-0.809359,-0.810264,-0.796164,-0.812000,-0.811424,-0.800014,-0.775217,-0.754263,-0.619231,-0.443634,-0.705677,-0.774362,-0.799133,-0.802976,-0.811297,-0.812059,-0.815100,-0.824256,-0.826089,-0.813134,-0.826386,-0.811144,-0.800040,-0.771934,-0.661064,-0.433882
-0.666420,-0.743073,-0.733361,-0.752605,-0.771901,-0.773387,-0.785222,-0.787208,-0.771594,-0.781674,-0.788095,-0.770114,-0.731074,-0.707851,-0.533999,-0.340515,-0.654692,-0.723303,-0.765629,-0.778849,-0.777434,-0.785572,-0.790043,-0.800161,-0.805688,-0.778041,-0.797421,-0.779691,-0.751559,-0.725638,-0.576607,-0.316228
-0.733874,-0.795011,-0.796221,-0.812610,-0.818445,-0.814048,-0.830977,-0.823528,-0.822528,-0.831320,-0.820235,-0.818335,-0.802039,-0.780153,-0.668199,-0.500121,-0.727795,-0.785467,-0.813679,-0.821484,-0.816960,-0.822073,-0.831633,-0.831636,-0.838291,-0.814216,-0.838085,-0.829099,-0.816883,-0.801803,-0.703418,-0.486901
-0.738255,-0.803852,-0.800573,-0.827393,-0.826971,-0.827005,-0.831931,-0.830438,-0.822605,-0.836065,-0.838740,-0.829877,-0.813919,-0.797981,-0.679805,-0.518587,-0.733376,-0.799065,-0.822709,-0.825601,-0.833427,-0.828123,-0.837090,-0.841132,-0.846060,-0.834501,-0.849336,-0.834356,-0.827317,-0.810537,-0.710252,-0.492934
-0.739960,-0.809398,-0.809081,-0.824129,-0.828745,-0.832290,-0.839786,-0.831546,-0.823053,-0.833130,-0.843831,-0.829349,-0.817362,-0.796856,-0.685308,-0.526581,-0.745710,-0.809638,-0.826945,-0.836007,-0.835101,-0.837300,-0.839117,-0.840170,-0.846890,-0.830558,-0.852714,-0.838963,-0.831110,-0.819619,-0.709537,-0.489576
-0.737020,-0.796979,-0.794500,-0.816218,-0.818972,-0.823878,-0.833749,-0.826106,-0.813019,-0.830632,-0.838286,-0.826505,-0.804805,-0.785146,-0.667904,-0.485263,-0.732313,-0.800858,-0.815905,-0.820291,-0.829360,-0.829056,-0.834964,-0.835555,-0.848385,-0.825663,-0.844310,-0.831708,-0.820628,-0.808997,-0.708242,-0.502252
-0.738101,-0.805141,-0.804058,-0.824824,-0.826195,-0.819348,-0.835427,-0.828498,-0.819457,-0.831117,-0.835380,-0.824496,-0.805751,-0.786071,-0.668270,-0.506916,-0.732614,-0.801962,-0.821502,-0.830442,-0.829428,-0.832031,-0.835231,-0.836642,-0.844921,-0.825495,-0.846004,-0.829777,-0.819578,-0.804142,-0.696768,-0.479614
-0.740984,-0.806873,-0.806896,-0.827413,-0.830687,-0.826310,-0.833660,-0.829261,-0.815686,-0.831743,-0.839903,-0.828170,-0.807436,-0.789566,-0.664632,-0.497001,-0.734205,-0.804495,-0.822634,-0.827110,-0.831194,-0.833580,-0.838253,-0.841712,-0.849169,-0.829765,-0.846864,-0.835159,-0.820680,-0.803230,-0.693039,-0.475450
-0.737121,-0.804094,-0.800358,-0.826523,-0.827552,-0.826062,-0.837079,-0.827403,-0.822685,-0.832966,-0.840194,-0.825385,-0.801345,-0.782513,-0.649854,-0.467015,-0.730136,-0.803387,-0.823420,-0.833107,-0.830869,-0.836061,-0.838067,-0.840922,-0.848382,-0.828644,-0.847308,-0.833682,-0.815520,-0.799872,-0.686474,-0.458315
-0.740026,-0.804688,-0.803702,-0.824741,-0.826741,-0.825042,-0.837334,-0.828085,-0.819098,-0.830362,-0.832519,-0.826830,-0.801549,-0.782319,-0.642269,-0.441487,-0.732980,-0.803737,-0.821058,-0.830606,-0.831030,-0.832245,-0.836764,-0.840189,-0.846222,-0.826528,-0.844048,-0.832326,-0.815912,-0.796409,-0.679230,-0.443357
-0.737979,-0.803385,-0.797330,-0.817819,-0.827903,-0.820554,-0.835054,-0.826736,-0.810612,-0.830205,-0.829937,-0.824840,-0.800585,-0.777994,-0.645972,-0.469864,-0.720656,-0.795857,-0.820955,-0.828243,-0.826798,-0.831501,-0.836340,-0.837572,-0.847726,-0.829562,-0.843137,-0.830629,-0.818810,-0.800327,-0.684069,-0.458263
-0.724032,-0.791097,-0.799840,-0.814645,-0.828741,-0.821761,-0.834916,-0.827110,-0.814790,-0.828294,-0.830088,-0.818383,-0.791578,-0.771494,-0.646879,-0.475008,-0.706482,-0.796672,-0.815247,-0.826366,-0.820076,-0.831247,-0.830610,-0.831436,-0.842963,-0.815615,-0.831876,-0.823404,-0.805034,-0.797159,-0.685006,-0.475608
-0.749660,-0.823503,-0.815647,-0.837740,-0.846823,-0.837355,-0.851879,-0.844198,-0.829109,-0.845259,-0.846954,-0.837635,-0.821769,-0.792621,-0.679575,-0.521653,-0.737261,-0.810116,-0.830703,-0.835665,-0.837226,-0.840580,-0.840789,-0.847460,-0.858717,-0.848893,-0.851202,-0.839954,-0.831005,-0.810467,-0.701555,-0.487958
-0.715602,-0.569734,-0.552702,-0.643024,-0.677610,-0.705964,-0.705492,-0.698057,-0.617738,-0.622243,-0.645724,-0.613206,-0.561144,-0.582115,-0.680955,-0.713999,-0.737035,-0.651994,-0.602762,-0.638451,-0.669674,-0.702850,-0.697018,-0.696939,-0.636383,-0.627317,-0.638217,-0.585124,-0.545374,-0.560812,-0.663157,-0.714058
-0.703835,-0.631676,-0.579022,-0.654497,-0.679271,-0.698654,-0.703295,-0.695003,-0.608270,-0.580314,-0.618651,-0.599623,-0.569617,-0.586904,-0.686737,-0.711116,-0.731336,-0.648948,-0.633968,-0.651465,-0.671844,-0.700934,-0.705091,-0.699821,-0.633534,-0.623997,-0.639598,-0.587095,-0.584443,-0.596353,-0.682098,-0.719062
-0.684894,-0.623239,-0.586298,-0.638725,-0.655704,-0.681314,-0.693086,-0.680609,-0.626653,-0.632907,-0.654724,-0.630213,-0.582191,-0.593918,-0.688359,-0.712154,-0.713140,-0.640644,-0.621709,-0.630013,-0.648303,-0.685940,-0.688362,-0.679746,-0.621501,-0.618291,-0.639275,-0.596995,-0.601072,-0.608815,-0.683060,-0.720924
-0.694028,-0.618690,-0.577552,-0.639283,-0.667901,-0.688893,-0.694981,-0.690814,-0.626283,-0.631165,-0.650407,-0.623351,-0.574364,-0.588026,-0.683732,-0.718411,-0.718799,-0.638889,-0.619411,-0.648448,-0.663482,-0.685282,-0.683306,-0.687249,-0.639287,-0.625919,-0.638831,-0.592816,-0.594562,-0.603058,-0.679015,-0.717004
-0.682985,-0.609999,-0.560222,-0.625178,-0.651262,-0.670403,-0.679505,-0.674524,-0.594677,-0.598419,-0.626268,-0.605183,-0.566814,-0.583482,-0.680097,-0.707765,-0.710383,-0.635883,-0.613579,-0.641730,-0.653597,-0.671080,-0.681901,-0.671304,-0.621589,-0.600243,-0.621529,-0.585284,-0.582326,-0.586513,-0.672952,-0.705011
-0.704395,-0.624473,-0.590113,-0.646385,-0.675947,-0.705508,-0.712405,-0.708557,-0.641786,-0.643695,-0.654197,-0.635707,-0.582607,-0.596676,-0.701013,-0.726279,-0.728260,-0.629164,-0.627351,-0.655015,-0.670838,-0.708477,-0.695601,-0.692506,-0.643587,-0.637349,-0.643371,-0.599701,-0.597179,-0.596190,-0.686571,-0.734469
-0.711182,-0.619297,-0.530888,-0.634147,-0.671634,-0.693850,-0.704345,-0.704535,-0.657568,-0.664282,-0.652315,-0.624707,-0.573095,-0.585835,-0.692794,-0.718110,-0.729555,-0.619353,-0.625436,-0.656612,-0.681038,-0.700974,-0.700231,-0.695944,-0.659569,-0.664534,-0.651056,-0.607057,-0.597448,-0.592255,-0.681578,-0.728060
-0.717702,-0.612529,-0.497959,-0.643295,-0.685729,-0.709195,-0.711189,-0.708403,-0.657440,-0.665975,-0.649485,-0.627843,-0.563812,-0.577838,-0.691572,-0.726922,-0.728096,-0.599162,-0.625672,-0.662507,-0.688696,-0.714103,-0.696233,-0.692520,-0.661274,-0.663332,-0.644448,-0.596294,-0.597478,-0.587824,-0.674737,-0.729472
-0.714018,-0.600293,-0.556166,-0.646677,-0.686259,-0.710227,-0.713463,-0.709486,-0.649640,-0.665664,-0.660885,-0.630210,-0.569120,-0.585272,-0.694435,-0.731181,-0.730097,-0.604079,-0.627433,-0.673043,-0.690609,-0.714594,-0.698021,-0.687404,-0.644128,-0.655982,-0.646928,-0.601078,-0.595418,-0.592260,-0.684855,-0.734943
-0.715706,-0.610616,-0.546008,-0.640779,-0.675853,-0.702982,-0.704566,-0.706055,-0.663780,-0.660975,-0.639830,-0.612608,-0.558783,-0.575613,-0.687334,-0.721505,-0.726497,-0.610762,-0.622460,-0.664550,-0.678149,-0.706134,-0.691661,-0.689005,-0.648277,-0.652052,-0.635656,-0.590537,-0.585782,-0.578378,-0.672209,-0.727199
-0.716158,-0.613892,-0.547514,-0.643264,-0.679335,-0.703755,-0.711758,-0.711558,-0.657374,-0.662867,-0.652260,-0.618494,-0.564660,-0.581203,-0.691294,-0.720697,-0.732390,-0.612178,-0.627813,-0.663981,-0.663272,-0.704473,-0.695642,-0.690042,-0.651801,-0.651054,-0.638839,-0.585112,-0.586776,-0.581908,-0.675593,-0.729413
-0.712482,-0.570438,-0.553739,-0.656966,-0.685817,-0.711612,-0.707589,-0.700743,-0.656889,-0.659831,-0.651371,-0.617797,-0.560764,-0.579082,-0.688705,-0.721959,-0.725647,-0.590741,-0.633287,-0.683257,-0.699133,-0.721437,-0.697304,-0.689827,-0.641840,-0.646674,-0.641717,-0.587338,-0.585482,-0.580770,-0.674930,-0.726736
-0.704420,-0.543306,-0.506608,-0.639286,-0.675967,-0.704885,-0.705151,-0.702296,-0.645684,-0.660178,-0.648513,-0.614173,-0.566317,-0.578330,-0.683374,-0.707668,-0.713740,-0.580467,-0.607885,-0.671555,-0.687848,-0.711019,-0.685194,-0.678898,-0.635627,-0.649233,-0.639956,-0.587279,-0.586379,-0.581839,-0.664906,-0.710320
-0.702243,-0.514688,-0.554226,-0.653368,-0.684372,-0.702620,-0.690181,-0.693371,-0.677482,-0.668687,-0.653325,-0.621564,-0.573860,-0.592366,-0.698609,-0.730810,-0.721370,-0.562948,-0.623771,-0.682324,-0.692717,-0.709641,-0.692842,-0.696481,-0.658096,-0.657218,-0.642774,-0.587843,-0.582713,-0.580894,-0.681931,-0.734003
-0.727691,-0.594530,-0.537313,-0.657262,-0.698768,-0.712733,-0.694724,-0.695785,-0.675975,-0.670780,-0.655997,-0.622210,-0.559878,-0.580974,-0.691912,-0.731852,-0.736322,-0.621933,-0.607829,-0.678753,-0.701564,-0.721551,-0.707386,-0.699931,-0.641039,-0.636815,-0.626818,-0.573308,-0.562641,-0.558059,-0.668144,-0.732502
-0.718962,-0.592071,-0.535982,-0.652644,-0.696162,-0.715399,-0.713603,-0.713469,-0.685937,-0.668490,-0.657180,-0.622677,-0.548798,-0.549015,-0.663295,-0.699382,-0.728956,-0.629009,-0.620882,-0.678672,-0.695923,-0.714318,-0.701138,-0.698087,-0.639496,-0.631991,-0.639348,-0.586054,-0.554551,-0.539774,-0.641425,-0.699598
-0.719556,-0.593277,-0.539062,-0.649816,-0.695681,-0.718170,-0.717610,-0.718053,-0.698615,-0.689961,-0.661490,-0.622250,-0.543403,-0.557023,-0.672565,-0.717153,-0.730330,-0.635305,-0.620552,-0.670420,-0.695614,-0.717168,-0.706254,-0.699845,-0.680303,-0.674653,-0.645093,-0.588965,-0.573154,-0.567388,-0.664187,-0.721485
-0.730321,-0.596554,-0.546674,-0.655298,-0.699796,-0.720310,-0.723338,-0.717660,-0.676348,-0.698217,-0.663219,-0.620994,-0.530134,-0.545035,-0.667188,-0.719888,-0.741284,-0.634611,-0.618203,-0.678625,-0.706240,-0.731846,-0.714376,-0.712727,-0.689829,-0.682458,-0.650617,-0.588084,-0.570856,-0.562960,-0.661306,-0.725415
-0.728764,-0.596291,-0.540088,-0.645224,-0.695911,-0.722309,-0.724142,-0.725348,-0.685219,-0.668622,-0.648375,-0.618908,-0.549480,-0.567009,-0.675259,-0.722189,-0.740435,-0.633630,-0.619613,-0.671862,-0.705742,-0.725885,-0.716693,-0.713740,-0.674232,-0.672240,-0.645570,-0.573045,-0.572320,-0.568987,-0.666234,-0.728951
-0.720421,-0.559632,-0.527419,-0.648401,-0.684804,-0.709931,-0.717277,-0.718076,-0.661600,-0.681616,-0.679774,-0.637455,-0.559338,-0.573156,-0.687123,-0.727195,-0.736997,-0.621613,-0.637669,-0.674548,-0.700568,-0.727348,-0.717899,-0.714083,-0.650632,-0.668980,-0.666251,-0.614369,-0.587031,-0.582737,-0.676054,-0.736111
-0.724944,-0.602211,-0.546538,-0.658439,-0.694640,-0.717063,-0.724515,-0.726988,-0.679033,-0.699156,-0.683185,-0.636306,-0.561620,-0.574190,-0.688491,-0.728505,-0.740048,-0.638267,-0.636364,-0.650896,-0.690113,-0.725696,-0.722482,-0.719689,-0.677277,-0.685946,-0.666635,-0.601287,-0.573731,-0.571260,-0.669583,-0.735603
-0.714085,-0.614448,-0.527637,-0.637851,-0.680406,-0.701684,-0.697724,-0.707639,-0.672147,-0.682959,-0.667644,-0.625238,-0.543390,-0.558296,-0.670382,-0.707790,-0.720652,-0.604733,-0.600590,-0.654355,-0.666143,-0.701298,-0.701340,-0.698406,-0.666858,-0.682193,-0.662726,-0.601062,-0.580619,-0.575386,-0.665680,-0.714938
-0.723044,-0.626484,-0.530932,-0.660480,-0.691071,-0.705568,-0.698065,-0.702996,-0.672565,-0.693763,-0.674998,-0.618357,-0.505028,-0.516228,-0.663229,-0.716218,-0.737082,-0.645526,-0.654794,-0.677207,-0.693217,-0.714078,-0.704476,-0.698858,-0.656679,-0.673039,-0.661066,-0.594890,-0.534451,-0.511717,-0.632057,-0.716594
-0.722834,-0.613851,-0.539515,-0.661297,-0.698428,-0.716339,-0.720597,-0.717954,-0.666830,-0.690442,-0.664585,-0.608060,-0.497417,-0.502393,-0.638089,-0.694156,-0.726948,-0.633465,-0.667129,-0.691401,-0.709690,-0.725724,-0.710590,-0.694549,-0.648972,-0.654312,-0.647580,-0.600739,-0.554638,-0.531704,-0.619653,-0.705588
-0.714536,-0.619888,-0.541604,-0.663836,-0.698428,-0.712229,-0.727310,-0.718330,-0.694548,-0.709246,-0.662572,-0.573846,-0.387873,-0.397429,-0.596857,-0.670525,-0.739116,-0.657638,-0.677144,-0.690282,-0.690813,-0.731557,-0.726682,-0.699974,-0.665928,-0.687093,-0.684725,-0.612553,-0.512375,-0.442368,-0.552349,-0.658514
-0.762447,-0.657331,-0.570635,-0.707264,-0.750865,-0.779628,-0.781692,-0.764887,-0.715184,-0.733232,-0.685858,-0.639274,-0.596403,-0.625594,-0.726746,-0.761935,-0.768701,-0.672503,-0.698428,-0.700494,-0.735332,-0.784109,-0.755854,-0.736381,-0.706966,-0.716557,-0.699113,-0.619038,-0.584095,-0.586867,-0.696502,-0.757144
