0,1,2,3,4,5,6,7,8,9,10,11,12,13,14,15,16,17,18,19,20,21,22,23,24,25,26,27,28,29,30,31
-0.908654,-0.917807,-0.919887,-0.912045,-0.913442,-0.798406,-0.720421,-0.858287,-0.923281,-0.917131,-0.945218,-0.908845,-0.914312,-0.933358,-0.937212,-0.936581,-0.924207,-0.920410,-0.927115,-0.941683,-0.935478,-0.909461,-0.907778,-0.926525,-0.940958,-0.949161,-0.943217,-0.941090,-0.939858,-0.935329,-0.927577,-0.920547
-0.926187,-0.931859,-0.931398,-0.927919,-0.932216,-0.787906,-0.708118,-0.868491,-0.936988,-0.932046,-0.950342,-0.918771,-0.917963,-0.949668,-0.949163,-0.954050,-0.939961,-0.931329,-0.942801,-0.949170,-0.947903,-0.915787,-0.922851,-0.936568,-0.957310,-0.961650,-0.952194,-0.950154,-0.951865,-0.941728,-0.945183,-0.940630
-0.905203,-0.909029,-0.909701,-0.904490,-0.915342,-0.761295,-0.665303,-0.854468,-0.915125,-0.910233,-0.936440,-0.884851,-0.884052,-0.915387,-0.926157,-0.924660,-0.913394,-0.906948,-0.924416,-0.916106,-0.912327,-0.885035,-0.891745,-0.912589,-0.943197,-0.946366,-0.934592,-0.926093,-0.931640,-0.915361,-0.908149,-0.894792
-0.946784,-0.955149,-0.946718,-0.949179,-0.950905,-0.813296,-0.740121,-0.889180,-0.933196,-0.946261,-0.966043,-0.919385,-0.948703,-0.959677,-0.960488,-0.967773,-0.956418,-0.948018,-0.952948,-0.960704,-0.958177,-0.923904,-0.932252,-0.945363,-0.968436,-0.970683,-0.964892,-0.960808,-0.960927,-0.950499,-0.955779,-0.956527
-0.938934,-0.946874,-0.943353,-0.940392,-0.945915,-0.810858,-0.739067,-0.885013,-0.931241,-0.939243,-0.951333,-0.912415,-0.937139,-0.948591,-0.960433,-0.962543,-0.952111,-0.941219,-0.948802,-0.955173,-0.952107,-0.913860,-0.927696,-0.940729,-0.959513,-0.959785,-0.953230,-0.949336,-0.954101,-0.947302,-0.949789,-0.950862
-0.942405,-0.947574,-0.942635,-0.943538,-0.945342,-0.815762,-0.746348,-0.881328,-0.926116,-0.942636,-0.956596,-0.916079,-0.944340,-0.950560,-0.956963,-0.961075,-0.952379,-0.942298,-0.946162,-0.955931,-0.953454,-0.923112,-0.929996,-0.941227,-0.960485,-0.962469,-0.953917,-0.955242,-0.956663,-0.945453,-0.949922,-0.948736
-0.940953,-0.945662,-0.940118,-0.940668,-0.942065,-0.808382,-0.744519,-0.883108,-0.927508,-0.939906,-0.957609,-0.920503,-0.935612,-0.948165,-0.953344,-0.956337,-0.945324,-0.943558,-0.945055,-0.951038,-0.952186,-0.921857,-0.926551,-0.942210,-0.958295,-0.959117,-0.952433,-0.951786,-0.953355,-0.943803,-0.948853,-0.945786
-0.936969,-0.942579,-0.939604,-0.941099,-0.943977,-0.819011,-0.758677,-0.886225,-0.906521,-0.927611,-0.941786,-0.913623,-0.930178,-0.944661,-0.946681,-0.952467,-0.944269,-0.934368,-0.937058,-0.948896,-0.951916,-0.919988,-0.928038,-0.937267,-0.956393,-0.956556,-0.949504,-0.950980,-0.950236,-0.943732,-0.942585,-0.945096
-0.935082,-0.934475,-0.935238,-0.934609,-0.930781,-0.808942,-0.730889,-0.855247,-0.901223,-0.915909,-0.933829,-0.900861,-0.918025,-0.934060,-0.939560,-0.949849,-0.939362,-0.929100,-0.940380,-0.949156,-0.944968,-0.901060,-0.911995,-0.926237,-0.943962,-0.945414,-0.941832,-0.940570,-0.936972,-0.927813,-0.935728,-0.939592
-0.917285,-0.929469,-0.923279,-0.931134,-0.928319,-0.795249,-0.722796,-0.872566,-0.896400,-0.915369,-0.952018,-0.896701,-0.922642,-0.935633,-0.936988,-0.943391,-0.930888,-0.922957,-0.933362,-0.944746,-0.937110,-0.907947,-0.912086,-0.926484,-0.949108,-0.945426,-0.941052,-0.942546,-0.945240,-0.937054,-0.928602,-0.937726
-0.934706,-0.938956,-0.939873,-0.942777,-0.942543,-0.805521,-0.733682,-0.883125,-0.918427,-0.933684,-0.954352,-0.916445,-0.937316,-0.950015,-0.953001,-0.951680,-0.944819,-0.937244,-0.943652,-0.954820,-0.951870,-0.917263,-0.927852,-0.939873,-0.958986,-0.957723,-0.949786,-0.951883,-0.955824,-0.943089,-0.943899,-0.946813
-0.935935,-0.941497,-0.939907,-0.940782,-0.940207,-0.807234,-0.732342,-0.883748,-0.925633,-0.936027,-0.955370,-0.920879,-0.939657,-0.949203,-0.951776,-0.956237,-0.945944,-0.941943,-0.948509,-0.955373,-0.952872,-0.918637,-0.925350,-0.941069,-0.961376,-0.959096,-0.951723,-0.953097,-0.956369,-0.943922,-0.946601,-0.946893
-0.926916,-0.935798,-0.931090,-0.934053,-0.937912,-0.799044,-0.724017,-0.881002,-0.913559,-0.926341,-0.947470,-0.902937,-0.928948,-0.942735,-0.951707,-0.953400,-0.942941,-0.933255,-0.943126,-0.950859,-0.947006,-0.911621,-0.921113,-0.935741,-0.957933,-0.955000,-0.946570,-0.945818,-0.951744,-0.937534,-0.940187,-0.944769
-0.936185,-0.941622,-0.940777,-0.939813,-0.941629,-0.812056,-0.748373,-0.885113,-0.910623,-0.934753,-0.955420,-0.916225,-0.932596,-0.948052,-0.954481,-0.956757,-0.947824,-0.941946,-0.948085,-0.953993,-0.952457,-0.914474,-0.923099,-0.938259,-0.956039,-0.954878,-0.946832,-0.950142,-0.955970,-0.943367,-0.945069,-0.949080
-0.934693,-0.942266,-0.943512,-0.941934,-0.941096,-0.797072,-0.738751,-0.883957,-0.914075,-0.932122,-0.954269,-0.916655,-0.937990,-0.950351,-0.954484,-0.955676,-0.948048,-0.940433,-0.947367,-0.951893,-0.950201,-0.917934,-0.927427,-0.941749,-0.962954,-0.958019,-0.952254,-0.949645,-0.958008,-0.944526,-0.946707,-0.950731
-0.931638,-0.936534,-0.937921,-0.934067,-0.935594,-0.796795,-0.736276,-0.886495,-0.911087,-0.929604,-0.956084,-0.919114,-0.934046,-0.944152,-0.951266,-0.953752,-0.946781,-0.934631,-0.944502,-0.947167,-0.947267,-0.912938,-0.916992,-0.941026,-0.962324,-0.956864,-0.949275,-0.951376,-0.955335,-0.940687,-0.944734,-0.948036
-0.930744,-0.933844,-0.937316,-0.935085,-0.939606,-0.809114,-0.741342,-0.884077,-0.916449,-0.932637,-0.941889,-0.914995,-0.933230,-0.942963,-0.949279,-0.950452,-0.938563,-0.933601,-0.937039,-0.944160,-0.943934,-0.911132,-0.918648,-0.941670,-0.959809,-0.950255,-0.949374,-0.948552,-0.948984,-0.942146,-0.939801,-0.941328
-0.908903,-0.915652,-0.921774,-0.921674,-0.920516,-0.809252,-0.745791,-0.875386,-0.916265,-0.927651,-0.936332,-0.912959,-0.924595,-0.936024,-0.936246,-0.923494,-0.910798,-0.921242,-0.920299,-0.930159,-0.939526,-0.910735,-0.915726,-0.934172,-0.946816,-0.942717,-0.932343,-0.936124,-0.937366,-0.915687,-0.908107,-0.909261
-0.920650,-0.918125,-0.925463,-0.927555,-0.924923,-0.811852,-0.748709,-0.884753,-0.918120,-0.936648,-0.942467,-0.915771,-0.926051,-0.940013,-0.941353,-0.939075,-0.929506,-0.931976,-0.941079,-0.934555,-0.939303,-0.914904,-0.922884,-0.940022,-0.950401,-0.946425,-0.935301,-0.935674,-0.944337,-0.931124,-0.930305,-0.929395
-0.938114,-0.937388,-0.947308,-0.941036,-0.939208,-0.798122,-0.733068,-0.877524,-0.917190,-0.935148,-0.947126,-0.918189,-0.932194,-0.941531,-0.951530,-0.956301,-0.950069,-0.947046,-0.954296,-0.947443,-0.953034,-0.918941,-0.925897,-0.946674,-0.961944,-0.957537,-0.947306,-0.947808,-0.958733,-0.950576,-0.950446,-0.950460
-0.928805,-0.936916,-0.943811,-0.946398,-0.941737,-0.752864,-0.667808,-0.863405,-0.923225,-0.939003,-0.953660,-0.912569,-0.939504,-0.952397,-0.947805,-0.950666,-0.949735,-0.944838,-0.953520,-0.954532,-0.954290,-0.909915,-0.924575,-0.945925,-0.964275,-0.957878,-0.950784,-0.951865,-0.958112,-0.948493,-0.950532,-0.945961
-0.931363,-0.933907,-0.940756,-0.941985,-0.939567,-0.788973,-0.715508,-0.878141,-0.918885,-0.937995,-0.949559,-0.919961,-0.937555,-0.950482,-0.956736,-0.950249,-0.943033,-0.943173,-0.946568,-0.951913,-0.952807,-0.913921,-0.922910,-0.944847,-0.963675,-0.957008,-0.952423,-0.949885,-0.954440,-0.948714,-0.947001,-0.948566
-0.929179,-0.936950,-0.943000,-0.941236,-0.938987,-0.790426,-0.720842,-0.872327,-0.919706,-0.935181,-0.954395,-0.916997,-0.940220,-0.949212,-0.959436,-0.953098,-0.947161,-0.941205,-0.951859,-0.950830,-0.953124,-0.914065,-0.923738,-0.946588,-0.963157,-0.958847,-0.949232,-0.948702,-0.954724,-0.947170,-0.945798,-0.946178
-0.928963,-0.937549,-0.942845,-0.944387,-0.939453,-0.785962,-0.712547,-0.874188,-0.918948,-0.937238,-0.953123,-0.914031,-0.939628,-0.950544,-0.959075,-0.955567,-0.949489,-0.942762,-0.953447,-0.952095,-0.952761,-0.914609,-0.924884,-0.946445,-0.964155,-0.961492,-0.954231,-0.951345,-0.956373,-0.948551,-0.949047,-0.949036
-0.926473,-0.932567,-0.937668,-0.940335,-0.931211,-0.767929,-0.692560,-0.867625,-0.918339,-0.933432,-0.952104,-0.904018,-0.938630,-0.949888,-0.958684,-0.954609,-0.947960,-0.936869,-0.949852,-0.948515,-0.944638,-0.906007,-0.917327,-0.940496,-0.960892,-0.958984,-0.951275,-0.945289,-0.951636,-0.943968,-0.945916,-0.946403
-0.928440,-0.937383,-0.939632,-0.942434,-0.936532,-0.783806,-0.714113,-0.870612,-0.921294,-0.938591,-0.953505,-0.919954,-0.938031,-0.950344,-0.958161,-0.957632,-0.949489,-0.937825,-0.952950,-0.945740,-0.946469,-0.911495,-0.922863,-0.945485,-0.965531,-0.960284,-0.952151,-0.950400,-0.954862,-0.942998,-0.947633,-0.944251
-0.935911,-0.944595,-0.949185,-0.950567,-0.945397,-0.807269,-0.742411,-0.883831,-0.912646,-0.926737,-0.958257,-0.927483,-0.942107,-0.953478,-0.956792,-0.959673,-0.953321,-0.946155,-0.956178,-0.957572,-0.954847,-0.923993,-0.932132,-0.952074,-0.967442,-0.962277,-0.954215,-0.952510,-0.958389,-0.953385,-0.952565,-0.949944
-0.923346,-0.932507,-0.934646,-0.938882,-0.934925,-0.795889,-0.732317,-0.871947,-0.911884,-0.924016,-0.937940,-0.912457,-0.929835,-0.936544,-0.951988,-0.947489,-0.936000,-0.930325,-0.944812,-0.945805,-0.940973,-0.905847,-0.918316,-0.935394,-0.956087,-0.946778,-0.935090,-0.935797,-0.942833,-0.939033,-0.937521,-0.933357
-0.938163,-0.945653,-0.949347,-0.943033,-0.941962,-0.793140,-0.735559,-0.872332,-0.924977,-0.939097,-0.957670,-0.928417,-0.947439,-0.955295,-0.966683,-0.958379,-0.957147,-0.945851,-0.958394,-0.958199,-0.953812,-0.918183,-0.931250,-0.950317,-0.968476,-0.963709,-0.953961,-0.954658,-0.961095,-0.955312,-0.955001,-0.952543
-0.927824,-0.934030,-0.939522,-0.938208,-0.931632,-0.770243,-0.682208,-0.836676,-0.924706,-0.939047,-0.952893,-0.922803,-0.943938,-0.944714,-0.953365,-0.954183,-0.941510,-0.937366,-0.950920,-0.950160,-0.948758,-0.911432,-0.922630,-0.938333,-0.953475,-0.953872,-0.944995,-0.947954,-0.940888,-0.942237,-0.944678,-0.927274
-0.905565,-0.916238,-0.921238,-0.922095,-0.925728,-0.804877,-0.735985,-0.872092,-0.928547,-0.922131,-0.921133,-0.924269,-0.920734,-0.926671,-0.907995,-0.925389,-0.907496,-0.918502,-0.933477,-0.930858,-0.935753,-0.913743,-0.914675,-0.932115,-0.941769,-0.936642,-0.932761,-0.924061,-0.914803,-0.928431,-0.912483,-0.897997
-0.923162,-0.936277,-0.943932,-0.937632,-0.941571,-0.808420,-0.740789,-0.881862,-0.934750,-0.935760,-0.956821,-0.930259,-0.947955,-0.947849,-0.940971,-0.945248,-0.938719,-0.944940,-0.952135,-0.956903,-0.954678,-0.926763,-0.929877,-0.949246,-0.961324,-0.957860,-0.946938,-0.946578,-0.948311,-0.949735,-0.944019,-0.939388
-0.929930,-0.940052,-0.943096,-0.945193,-0.937298,-0.784305,-0.708911,-0.871228,-0.931370,-0.941377,-0.951619,-0.918780,-0.946008,-0.954389,-0.959064,-0.965329,-0.955164,-0.944873,-0.957312,-0.951383,-0.954517,-0.917403,-0.927960,-0.945380,-0.965611,-0.964380,-0.956326,-0.950693,-0.952628,-0.948237,-0.953829,-0.944093
-0.911464,-0.921448,-0.927415,-0.929213,-0.921253,-0.762744,-0.693372,-0.857767,-0.919157,-0.926910,-0.949482,-0.908920,-0.935140,-0.947502,-0.954505,-0.957051,-0.940307,-0.935263,-0.944488,-0.942833,-0.944446,-0.909473,-0.919104,-0.935271,-0.953770,-0.952363,-0.946424,-0.942117,-0.946431,-0.939711,-0.942674,-0.937421
-0.924863,-0.934650,-0.937646,-0.942101,-0.931937,-0.782445,-0.714962,-0.871783,-0.927915,-0.938752,-0.953365,-0.919097,-0.942530,-0.953504,-0.957692,-0.955529,-0.949363,-0.936320,-0.950797,-0.946558,-0.953896,-0.914190,-0.926431,-0.943862,-0.964706,-0.961784,-0.954797,-0.950360,-0.949200,-0.942547,-0.949035,-0.944132
-0.923340,-0.929638,-0.935179,-0.937068,-0.929256,-0.779452,-0.703715,-0.865177,-0.911542,-0.919256,-0.941140,-0.901542,-0.933404,-0.939952,-0.949456,-0.956519,-0.941094,-0.928515,-0.946509,-0.938067,-0.943143,-0.908503,-0.918178,-0.931353,-0.957394,-0.955280,-0.944429,-0.940357,-0.938220,-0.936834,-0.945557,-0.940280
-0.922780,-0.935222,-0.938198,-0.940459,-0.934049,-0.778793,-0.709179,-0.865679,-0.928391,-0.937607,-0.953287,-0.908457,-0.939863,-0.949606,-0.957662,-0.958421,-0.945366,-0.936663,-0.948608,-0.945242,-0.950522,-0.910239,-0.923130,-0.936950,-0.954797,-0.960720,-0.950149,-0.944968,-0.943274,-0.941518,-0.945382,-0.943293
-0.924191,-0.929273,-0.929609,-0.937509,-0.933521,-0.798005,-0.739590,-0.881971,-0.929311,-0.932122,-0.950576,-0.919202,-0.937378,-0.950680,-0.946883,-0.947859,-0.944499,-0.937333,-0.947172,-0.943949,-0.950847,-0.917705,-0.926495,-0.939303,-0.961587,-0.959086,-0.947749,-0.938752,-0.945659,-0.941568,-0.945334,-0.932688
-0.926712,-0.932277,-0.936365,-0.938252,-0.937352,-0.807057,-0.744149,-0.881393,-0.934281,-0.935236,-0.948507,-0.921156,-0.940393,-0.945245,-0.950226,-0.951909,-0.941843,-0.939626,-0.951587,-0.951257,-0.950095,-0.922790,-0.928325,-0.943929,-0.957489,-0.949657,-0.947601,-0.938980,-0.947776,-0.943205,-0.942095,-0.940113
-0.921156,-0.933800,-0.934945,-0.940668,-0.931495,-0.807713,-0.740352,-0.885323,-0.931615,-0.936155,-0.953517,-0.927345,-0.946325,-0.947321,-0.948226,-0.950866,-0.941667,-0.937751,-0.949989,-0.948790,-0.951134,-0.927170,-0.930092,-0.948969,-0.962778,-0.961478,-0.952664,-0.949958,-0.951284,-0.944314,-0.941819,-0.935930
-0.925892,-0.933618,-0.932558,-0.942133,-0.938619,-0.802188,-0.733068,-0.880220,-0.942140,-0.940114,-0.955854,-0.918815,-0.948794,-0.953929,-0.948047,-0.955224,-0.938413,-0.943311,-0.949661,-0.950986,-0.954636,-0.920710,-0.929211,-0.942574,-0.962891,-0.954327,-0.949489,-0.947057,-0.944092,-0.945700,-0.946101,-0.935353
-0.932010,-0.940505,-0.944698,-0.948038,-0.940143,-0.781559,-0.719805,-0.865207,-0.936970,-0.941410,-0.948539,-0.929932,-0.946792,-0.953200,-0.955704,-0.960545,-0.949248,-0.943441,-0.956501,-0.955516,-0.960977,-0.928447,-0.933368,-0.944128,-0.956216,-0.959724,-0.950472,-0.947807,-0.952238,-0.949786,-0.949397,-0.941862
-0.935120,-0.941771,-0.946848,-0.948799,-0.944756,-0.805787,-0.731792,-0.884421,-0.938379,-0.937265,-0.953226,-0.934327,-0.950378,-0.952685,-0.953997,-0.959257,-0.949765,-0.944167,-0.956191,-0.957387,-0.961033,-0.931869,-0.936857,-0.948124,-0.962873,-0.963197,-0.956404,-0.955384,-0.952914,-0.950073,-0.945597,-0.938983
-0.917603,-0.923814,-0.929801,-0.934173,-0.926611,-0.767166,-0.663191,-0.862671,-0.929582,-0.934226,-0.933232,-0.920462,-0.936897,-0.937691,-0.915482,-0.932421,-0.917335,-0.934106,-0.937185,-0.941018,-0.946758,-0.920000,-0.922116,-0.936177,-0.951989,-0.946250,-0.940957,-0.940055,-0.934682,-0.926795,-0.918783,-0.902022
-0.916817,-0.923523,-0.928633,-0.934723,-0.932560,-0.795364,-0.720979,-0.869026,-0.936595,-0.939778,-0.944677,-0.924145,-0.941616,-0.946066,-0.945350,-0.946506,-0.930555,-0.932876,-0.942601,-0.940803,-0.943885,-0.919619,-0.919074,-0.935939,-0.950466,-0.954800,-0.947886,-0.944422,-0.938955,-0.933176,-0.937247,-0.920645
-0.928899,-0.927687,-0.932406,-0.936047,-0.932870,-0.796081,-0.718716,-0.870288,-0.944392,-0.945449,-0.944089,-0.911173,-0.939277,-0.949516,-0.937895,-0.949833,-0.938827,-0.942158,-0.949803,-0.940117,-0.947667,-0.923827,-0.928590,-0.941131,-0.957637,-0.960450,-0.950867,-0.941794,-0.945296,-0.934345,-0.939180,-0.925240
-0.928043,-0.933437,-0.937064,-0.937389,-0.932950,-0.795515,-0.716399,-0.867690,-0.946707,-0.949956,-0.950178,-0.928115,-0.944686,-0.954501,-0.944809,-0.961282,-0.946760,-0.941615,-0.945618,-0.945496,-0.953197,-0.925312,-0.931436,-0.941331,-0.962824,-0.963160,-0.955042,-0.952716,-0.949421,-0.945094,-0.948221,-0.932518
-0.920742,-0.932264,-0.936941,-0.938157,-0.931399,-0.791581,-0.709248,-0.861470,-0.944492,-0.947072,-0.941326,-0.923472,-0.940604,-0.955104,-0.930582,-0.950676,-0.942606,-0.943219,-0.953189,-0.945471,-0.948454,-0.919382,-0.926047,-0.939178,-0.959960,-0.955853,-0.954705,-0.953338,-0.951698,-0.942601,-0.946237,-0.929151
-0.866879,-0.889495,-0.885595,-0.893333,-0.878637,-0.601234,-0.473844,-0.775697,-0.937191,-0.937988,-0.927106,-0.858811,-0.908063,-0.931542,-0.937387,-0.953478,-0.925049,-0.899224,-0.929897,-0.905694,-0.917019,-0.835521,-0.864403,-0.884079,-0.942241,-0.938869,-0.919267,-0.920765,-0.926550,-0.912411,-0.924899,-0.913042
-0.935857,-0.939062,-0.945006,-0.947410,-0.944513,-0.820037,-0.740355,-0.875037,-0.943548,-0.952081,-0.951496,-0.933193,-0.951191,-0.956439,-0.949091,-0.952712,-0.943990,-0.944940,-0.953152,-0.953934,-0.956289,-0.937392,-0.939971,-0.947441,-0.963170,-0.963054,-0.958711,-0.956535,-0.953610,-0.950202,-0.952624,-0.939883
-0.934113,-0.944262,-0.943868,-0.948511,-0.944314,-0.813955,-0.718607,-0.866279,-0.933771,-0.925626,-0.944803,-0.931625,-0.948938,-0.958106,-0.940932,-0.955514,-0.943485,-0.950462,-0.954402,-0.954679,-0.950973,-0.938084,-0.942040,-0.949991,-0.964813,-0.967031,-0.960167,-0.959026,-0.951168,-0.949869,-0.954313,-0.939708
-0.939365,-0.943800,-0.944719,-0.949545,-0.942213,-0.816256,-0.725849,-0.877497,-0.947024,-0.943732,-0.954645,-0.927007,-0.952396,-0.962416,-0.947647,-0.962367,-0.947249,-0.949493,-0.959162,-0.951340,-0.958363,-0.937743,-0.939137,-0.950658,-0.964673,-0.967692,-0.959360,-0.959250,-0.950760,-0.949524,-0.956058,-0.939475
-0.930468,-0.938891,-0.936335,-0.943468,-0.942329,-0.821199,-0.740138,-0.874854,-0.946707,-0.949133,-0.953782,-0.930081,-0.949683,-0.957401,-0.938133,-0.955674,-0.944237,-0.948831,-0.952837,-0.952700,-0.957232,-0.938187,-0.937956,-0.950832,-0.964528,-0.967058,-0.960147,-0.958616,-0.953826,-0.948403,-0.952123,-0.936987
-0.934240,-0.938125,-0.943280,-0.947504,-0.942046,-0.818108,-0.741214,-0.874674,-0.948225,-0.947193,-0.951039,-0.931946,-0.946913,-0.961508,-0.936573,-0.957135,-0.948052,-0.946658,-0.958882,-0.951341,-0.956902,-0.934581,-0.938150,-0.947156,-0.959985,-0.965593,-0.958362,-0.959259,-0.955259,-0.946802,-0.951410,-0.938521
-0.936163,-0.943551,-0.946023,-0.947960,-0.941353,-0.811564,-0.735164,-0.875717,-0.951679,-0.949916,-0.956026,-0.929939,-0.949189,-0.961242,-0.944704,-0.961401,-0.950090,-0.949223,-0.959760,-0.948523,-0.954041,-0.932992,-0.933549,-0.948054,-0.967672,-0.966128,-0.963347,-0.961204,-0.955049,-0.949402,-0.952583,-0.940331
-0.930101,-0.934944,-0.940132,-0.943338,-0.936810,-0.812277,-0.731697,-0.873889,-0.946654,-0.946325,-0.951952,-0.929656,-0.946365,-0.957027,-0.939516,-0.956195,-0.938567,-0.944012,-0.955138,-0.949790,-0.953547,-0.926363,-0.932402,-0.945245,-0.962822,-0.958570,-0.954194,-0.956559,-0.951376,-0.944700,-0.947072,-0.936636
-0.904251,-0.910054,-0.924452,-0.921429,-0.919706,-0.799820,-0.712943,-0.861537,-0.937595,-0.932240,-0.937264,-0.916880,-0.938441,-0.937014,-0.912354,-0.934736,-0.920278,-0.923685,-0.936862,-0.927347,-0.936373,-0.917422,-0.917641,-0.926946,-0.943757,-0.940973,-0.938050,-0.937231,-0.926258,-0.934783,-0.919519,-0.910527
-0.916053,-0.927824,-0.930784,-0.931952,-0.928890,-0.811455,-0.731325,-0.867891,-0.918461,-0.929551,-0.941350,-0.922982,-0.939592,-0.946233,-0.920667,-0.940660,-0.926790,-0.933874,-0.943815,-0.939244,-0.946927,-0.922871,-0.918926,-0.938508,-0.952470,-0.949153,-0.947511,-0.945174,-0.938085,-0.930877,-0.933607,-0.919486
-0.918504,-0.924035,-0.926651,-0.929524,-0.930513,-0.813955,-0.734014,-0.870250,-0.933240,-0.923047,-0.932708,-0.922609,-0.933491,-0.938421,-0.917254,-0.934895,-0.928277,-0.932076,-0.941657,-0.937552,-0.945931,-0.920692,-0.917588,-0.934114,-0.948223,-0.943655,-0.941221,-0.939487,-0.931315,-0.934507,-0.923722,-0.926200
-0.923500,-0.928617,-0.938478,-0.936590,-0.928556,-0.805081,-0.728528,-0.863654,-0.940197,-0.934703,-0.950629,-0.917636,-0.943940,-0.948816,-0.927938,-0.951814,-0.939749,-0.933707,-0.945674,-0.940973,-0.944075,-0.916152,-0.923294,-0.934339,-0.956551,-0.951511,-0.945710,-0.951800,-0.950787,-0.940332,-0.942722,-0.933652
-0.937057,-0.940048,-0.944770,-0.949354,-0.944919,-0.828358,-0.748284,-0.886241,-0.949610,-0.950274,-0.952698,-0.932548,-0.953129,-0.960696,-0.931692,-0.955746,-0.944988,-0.947220,-0.959392,-0.952109,-0.960282,-0.932142,-0.941296,-0.949497,-0.963555,-0.961111,-0.955207,-0.956703,-0.954706,-0.950435,-0.946552,-0.937736
-0.935299,-0.942627,-0.939878,-0.941632,-0.939072,-0.824402,-0.743706,-0.880286,-0.948266,-0.949511,-0.948893,-0.931055,-0.950572,-0.960047,-0.933646,-0.954502,-0.948103,-0.945569,-0.955288,-0.951926,-0.961118,-0.932925,-0.939862,-0.948195,-0.962053,-0.960400,-0.960417,-0.955531,-0.951697,-0.949168,-0.947274,-0.943787
-0.937844,-0.947471,-0.946885,-0.949411,-0.944411,-0.804214,-0.711287,-0.868045,-0.945283,-0.952312,-0.952116,-0.923349,-0.951656,-0.961390,-0.935567,-0.961540,-0.950311,-0.949248,-0.958146,-0.952111,-0.957959,-0.927884,-0.937128,-0.947317,-0.966874,-0.965129,-0.959774,-0.955519,-0.955078,-0.951032,-0.954308,-0.945012
-0.938015,-0.945838,-0.946511,-0.948621,-0.943427,-0.812360,-0.729491,-0.873647,-0.948034,-0.948332,-0.951367,-0.927359,-0.950332,-0.958972,-0.937492,-0.960081,-0.950348,-0.946822,-0.958402,-0.949530,-0.959541,-0.931544,-0.938631,-0.948236,-0.965547,-0.962220,-0.959647,-0.955424,-0.952582,-0.948360,-0.952022,-0.943904
-0.934421,-0.941222,-0.942438,-0.944336,-0.940139,-0.817618,-0.736559,-0.870103,-0.949037,-0.949450,-0.948502,-0.923049,-0.945415,-0.957431,-0.931477,-0.953513,-0.944577,-0.944903,-0.946887,-0.946452,-0.956159,-0.928191,-0.937477,-0.943644,-0.962585,-0.958471,-0.956511,-0.949229,-0.950093,-0.947640,-0.946907,-0.940535
-0.934144,-0.942986,-0.940151,-0.944255,-0.938330,-0.810506,-0.732327,-0.870587,-0.946897,-0.947633,-0.946930,-0.919990,-0.947647,-0.953551,-0.935634,-0.954311,-0.946483,-0.939360,-0.954162,-0.943756,-0.955337,-0.922656,-0.929453,-0.942362,-0.955758,-0.957885,-0.954980,-0.949567,-0.943141,-0.945513,-0.948195,-0.939588
-0.921977,-0.928550,-0.927625,-0.936270,-0.928338,-0.788651,-0.706601,-0.851154,-0.940170,-0.934044,-0.942715,-0.913710,-0.937578,-0.946655,-0.931223,-0.950999,-0.938802,-0.934830,-0.944933,-0.940977,-0.943902,-0.915449,-0.917135,-0.931428,-0.953036,-0.949044,-0.949385,-0.944934,-0.945120,-0.940394,-0.941584,-0.931858
-0.922300,-0.927981,-0.928896,-0.934034,-0.919824,-0.784246,-0.701308,-0.848209,-0.940299,-0.939508,-0.935859,-0.914319,-0.934545,-0.943723,-0.921731,-0.945721,-0.937498,-0.933601,-0.944307,-0.934674,-0.940304,-0.910579,-0.921768,-0.929738,-0.944439,-0.943980,-0.942875,-0.935898,-0.938004,-0.936475,-0.934018,-0.930057
-0.926011,-0.931416,-0.928273,-0.932026,-0.928821,-0.795898,-0.714061,-0.852666,-0.942673,-0.941809,-0.940288,-0.923258,-0.938921,-0.948120,-0.934613,-0.946558,-0.939942,-0.930593,-0.948210,-0.941760,-0.949199,-0.916210,-0.923048,-0.935383,-0.949438,-0.951950,-0.940868,-0.943222,-0.943554,-0.943869,-0.941078,-0.936902
-0.923369,-0.928663,-0.929987,-0.934162,-0.926903,-0.788295,-0.698095,-0.844915,-0.938683,-0.931798,-0.930248,-0.918566,-0.933832,-0.944074,-0.924933,-0.940665,-0.938430,-0.934560,-0.943620,-0.943079,-0.949297,-0.918097,-0.922493,-0.933079,-0.949826,-0.947191,-0.943947,-0.939783,-0.941966,-0.941391,-0.935165,-0.925369
-0.894055,-0.896471,-0.904638,-0.913281,-0.905979,-0.783154,-0.703223,-0.833137,-0.926563,-0.921921,-0.906925,-0.914688,-0.917050,-0.923621,-0.898486,-0.909706,-0.904026,-0.912409,-0.910074,-0.923086,-0.925531,-0.904370,-0.901421,-0.908295,-0.922139,-0.921533,-0.926087,-0.925873,-0.914308,-0.914989,-0.903728,-0.897798
-0.906174,-0.921857,-0.927547,-0.931853,-0.919741,-0.776525,-0.683382,-0.833447,-0.927864,-0.925639,-0.932122,-0.925767,-0.933932,-0.933695,-0.928399,-0.923114,-0.924511,-0.928556,-0.928556,-0.942011,-0.942314,-0.914323,-0.918617,-0.928963,-0.935619,-0.941765,-0.939355,-0.936458,-0.926272,-0.931415,-0.923179,-0.925570
-0.927747,-0.936561,-0.938628,-0.940064,-0.933107,-0.796719,-0.722941,-0.859626,-0.941912,-0.941092,-0.945928,-0.927212,-0.941258,-0.943647,-0.941531,-0.948142,-0.943898,-0.937520,-0.949632,-0.937573,-0.949545,-0.916467,-0.926696,-0.935474,-0.951550,-0.952125,-0.953114,-0.947095,-0.942421,-0.939597,-0.939383,-0.936992
-0.925279,-0.932832,-0.933574,-0.938160,-0.930621,-0.795007,-0.718467,-0.857662,-0.936535,-0.939120,-0.943667,-0.922379,-0.936238,-0.937142,-0.941532,-0.948569,-0.938030,-0.935526,-0.945765,-0.938621,-0.946254,-0.914292,-0.921743,-0.932223,-0.948758,-0.949786,-0.951854,-0.941808,-0.939648,-0.934379,-0.936053,-0.936766
-0.925619,-0.936607,-0.936429,-0.937930,-0.932214,-0.802780,-0.727498,-0.862326,-0.939062,-0.940272,-0.942187,-0.920881,-0.941566,-0.943073,-0.940474,-0.949862,-0.942662,-0.937193,-0.946175,-0.941827,-0.947934,-0.917215,-0.925551,-0.932504,-0.950342,-0.951664,-0.949932,-0.944835,-0.941251,-0.937296,-0.937497,-0.936439
-0.922639,-0.933334,-0.933395,-0.937685,-0.929939,-0.803995,-0.731896,-0.862805,-0.940040,-0.942265,-0.942112,-0.922096,-0.939131,-0.941209,-0.935945,-0.947513,-0.939008,-0.936638,-0.948103,-0.936892,-0.946764,-0.916729,-0.927508,-0.933411,-0.949437,-0.950389,-0.949526,-0.943521,-0.939379,-0.935625,-0.935215,-0.937737
-0.925444,-0.930864,-0.937201,-0.937937,-0.930129,-0.803375,-0.731491,-0.861427,-0.933658,-0.930317,-0.939351,-0.915605,-0.941152,-0.935834,-0.939444,-0.945352,-0.939179,-0.936919,-0.943502,-0.942248,-0.945779,-0.912137,-0.928306,-0.929734,-0.946175,-0.942073,-0.946066,-0.943858,-0.936762,-0.936800,-0.935064,-0.937347
-0.908831,-0.920541,-0.928259,-0.927297,-0.919348,-0.781983,-0.708846,-0.855751,-0.936082,-0.935197,-0.933243,-0.919339,-0.938881,-0.937819,-0.935362,-0.940512,-0.926256,-0.927184,-0.935593,-0.929650,-0.940628,-0.902936,-0.908058,-0.923818,-0.939083,-0.943767,-0.940323,-0.934438,-0.931435,-0.928655,-0.930260,-0.934604
-0.901489,-0.914125,-0.917912,-0.920734,-0.909535,-0.764574,-0.690326,-0.841014,-0.928008,-0.930840,-0.935920,-0.916284,-0.928525,-0.928379,-0.928841,-0.935096,-0.928190,-0.921985,-0.930255,-0.928037,-0.926588,-0.892305,-0.907862,-0.914537,-0.938703,-0.933190,-0.933341,-0.924217,-0.923723,-0.924084,-0.925146,-0.926931
-0.909211,-0.918091,-0.920201,-0.920521,-0.916732,-0.777666,-0.709573,-0.849216,-0.932205,-0.932402,-0.935325,-0.907835,-0.933699,-0.930599,-0.928735,-0.938755,-0.929795,-0.920591,-0.933911,-0.935760,-0.937635,-0.900613,-0.912369,-0.921774,-0.939296,-0.935726,-0.934035,-0.934695,-0.925811,-0.929090,-0.925520,-0.920439
-0.914616,-0.925780,-0.927982,-0.931892,-0.925105,-0.794060,-0.719528,-0.857670,-0.933004,-0.933697,-0.932041,-0.919286,-0.928406,-0.938865,-0.929883,-0.936084,-0.930584,-0.932479,-0.941757,-0.941540,-0.941991,-0.909762,-0.916044,-0.928502,-0.942059,-0.943192,-0.938833,-0.932501,-0.933136,-0.933730,-0.925796,-0.932221
-0.917358,-0.922437,-0.930333,-0.927812,-0.924147,-0.790002,-0.716383,-0.857833,-0.933775,-0.928955,-0.942330,-0.914731,-0.933733,-0.937239,-0.933325,-0.937302,-0.933449,-0.928465,-0.940971,-0.940560,-0.940538,-0.911686,-0.919478,-0.925960,-0.941591,-0.941786,-0.940973,-0.935407,-0.930844,-0.932259,-0.930824,-0.933133
-0.919023,-0.927717,-0.931028,-0.931173,-0.926907,-0.791122,-0.716513,-0.860250,-0.940509,-0.939294,-0.935848,-0.923631,-0.932912,-0.940411,-0.938105,-0.942385,-0.931043,-0.934828,-0.940641,-0.945467,-0.945226,-0.914449,-0.923262,-0.930688,-0.947962,-0.944888,-0.945879,-0.941246,-0.937007,-0.931911,-0.932193,-0.932020
-0.923024,-0.932572,-0.935707,-0.938922,-0.932140,-0.800308,-0.726618,-0.860595,-0.938934,-0.936070,-0.946728,-0.923311,-0.938416,-0.940724,-0.939900,-0.945989,-0.934587,-0.936866,-0.947017,-0.945381,-0.946655,-0.918940,-0.925609,-0.933691,-0.949411,-0.947482,-0.945437,-0.943402,-0.939874,-0.931633,-0.936607,-0.936333
-0.939091,-0.940947,-0.945580,-0.947126,-0.939191,-0.798696,-0.717228,-0.860234,-0.951897,-0.950020,-0.956805,-0.931929,-0.951797,-0.954624,-0.956167,-0.960617,-0.955059,-0.944933,-0.953897,-0.951887,-0.953319,-0.923366,-0.929952,-0.940641,-0.960845,-0.959039,-0.956574,-0.954843,-0.951720,-0.942587,-0.950897,-0.948763
-0.936575,-0.936264,-0.939733,-0.940245,-0.935130,-0.790103,-0.719199,-0.855826,-0.937938,-0.940667,-0.952503,-0.930391,-0.947612,-0.949692,-0.951073,-0.954356,-0.951154,-0.943982,-0.954319,-0.953187,-0.950114,-0.924869,-0.926259,-0.936724,-0.959960,-0.954474,-0.949346,-0.952323,-0.948354,-0.942415,-0.944822,-0.944464
-0.934080,-0.935636,-0.942231,-0.943449,-0.932781,-0.787310,-0.713158,-0.856709,-0.954046,-0.951834,-0.952143,-0.930847,-0.948019,-0.951073,-0.950516,-0.956310,-0.950120,-0.943163,-0.954730,-0.951650,-0.948170,-0.918974,-0.925587,-0.935752,-0.956852,-0.954549,-0.953803,-0.952273,-0.948275,-0.938532,-0.943684,-0.942445
-0.931877,-0.930631,-0.936278,-0.939978,-0.932201,-0.800557,-0.698899,-0.863413,-0.941517,-0.947286,-0.948162,-0.921462,-0.941199,-0.943946,-0.951123,-0.956464,-0.949359,-0.936627,-0.946171,-0.950121,-0.954900,-0.926684,-0.932281,-0.940091,-0.960537,-0.956592,-0.951366,-0.954087,-0.949730,-0.952612,-0.945301,-0.945366
-0.929762,-0.933012,-0.935446,-0.942541,-0.941334,-0.792699,-0.683696,-0.861052,-0.947667,-0.947852,-0.955310,-0.921253,-0.943659,-0.952516,-0.947230,-0.951998,-0.954377,-0.939680,-0.951249,-0.952465,-0.958940,-0.927704,-0.932075,-0.941860,-0.962891,-0.956018,-0.953464,-0.957264,-0.946826,-0.956106,-0.943854,-0.943027
-0.933661,-0.937980,-0.940101,-0.942418,-0.939767,-0.797836,-0.707179,-0.852393,-0.946706,-0.950957,-0.955677,-0.921966,-0.942158,-0.953703,-0.957137,-0.959840,-0.955357,-0.938355,-0.952295,-0.951967,-0.958398,-0.924906,-0.932627,-0.940455,-0.963497,-0.956351,-0.953092,-0.955554,-0.949378,-0.954849,-0.950585,-0.945836
-0.935143,-0.937955,-0.941273,-0.945539,-0.940983,-0.793267,-0.700353,-0.858258,-0.947788,-0.952107,-0.957244,-0.915471,-0.946375,-0.955793,-0.958576,-0.963355,-0.952720,-0.941364,-0.951353,-0.952820,-0.958131,-0.927499,-0.927800,-0.942206,-0.963762,-0.960823,-0.953634,-0.957444,-0.955215,-0.956991,-0.954461,-0.947590
-0.930569,-0.935414,-0.933889,-0.939483,-0.936418,-0.784915,-0.692661,-0.856470,-0.942722,-0.946589,-0.948892,-0.910874,-0.942822,-0.950891,-0.952393,-0.959580,-0.951387,-0.935537,-0.946468,-0.946999,-0.954481,-0.923295,-0.929513,-0.938905,-0.963107,-0.958248,-0.954496,-0.950263,-0.948879,-0.952037,-0.951567,-0.946446
-0.921808,-0.930283,-0.931436,-0.931118,-0.931060,-0.746479,-0.620731,-0.819377,-0.943824,-0.948549,-0.951870,-0.912986,-0.940202,-0.951679,-0.951280,-0.961131,-0.953271,-0.931396,-0.944619,-0.936912,-0.947147,-0.910132,-0.919077,-0.932804,-0.962242,-0.955423,-0.947930,-0.948951,-0.945763,-0.945669,-0.949582,-0.944723
-0.924394,-0.927302,-0.935142,-0.936022,-0.931674,-0.783988,-0.691355,-0.851121,-0.947949,-0.947016,-0.954193,-0.917971,-0.941244,-0.948664,-0.950634,-0.957667,-0.950099,-0.935469,-0.948045,-0.945100,-0.948617,-0.917957,-0.922463,-0.930286,-0.958331,-0.950252,-0.945397,-0.950650,-0.943506,-0.948124,-0.944942,-0.943560
-0.920410,-0.922094,-0.926689,-0.930696,-0.930285,-0.778247,-0.685053,-0.843413,-0.938667,-0.945842,-0.947340,-0.909487,-0.933842,-0.943481,-0.953084,-0.951572,-0.941677,-0.928735,-0.938582,-0.935212,-0.943174,-0.909078,-0.918787,-0.929535,-0.955144,-0.947739,-0.940310,-0.944249,-0.939155,-0.940229,-0.938907,-0.937343
-0.923878,-0.923165,-0.928537,-0.926872,-0.928012,-0.782140,-0.678995,-0.844503,-0.943965,-0.946371,-0.953755,-0.912818,-0.936736,-0.944597,-0.942106,-0.953776,-0.942968,-0.928464,-0.935051,-0.946129,-0.950473,-0.914655,-0.921896,-0.931839,-0.955952,-0.948788,-0.943495,-0.948368,-0.941961,-0.946442,-0.941412,-0.942648
-0.912900,-0.920382,-0.922931,-0.924863,-0.925385,-0.779733,-0.689256,-0.844220,-0.939779,-0.941158,-0.940829,-0.911907,-0.929141,-0.938136,-0.935128,-0.939370,-0.937183,-0.928761,-0.939898,-0.939525,-0.943518,-0.914958,-0.920586,-0.924920,-0.952394,-0.942336,-0.934449,-0.941090,-0.931285,-0.929866,-0.928817,-0.932325
-0.886585,-0.889316,-0.882395,-0.888495,-0.884294,-0.634149,-0.505309,-0.778049,-0.920673,-0.921017,-0.925018,-0.865221,-0.902357,-0.918495,-0.937129,-0.934162,-0.927234,-0.883472,-0.917093,-0.911639,-0.913188,-0.851409,-0.865028,-0.887287,-0.932302,-0.927601,-0.909185,-0.920756,-0.912263,-0.917295,-0.913815,-0.924060
-0.918969,-0.926333,-0.931509,-0.932932,-0.929710,-0.805057,-0.721467,-0.860092,-0.927839,-0.935982,-0.941678,-0.923572,-0.931716,-0.943156,-0.944376,-0.938869,-0.934725,-0.925882,-0.928976,-0.946119,-0.944166,-0.920937,-0.920228,-0.935569,-0.946936,-0.943905,-0.937047,-0.941882,-0.938252,-0.943903,-0.930731,-0.926880
-0.926289,-0.932911,-0.936834,-0.937015,-0.933234,-0.796628,-0.698672,-0.854164,-0.928456,-0.937739,-0.956186,-0.927636,-0.939857,-0.945532,-0.950990,-0.948394,-0.944917,-0.934694,-0.946206,-0.950952,-0.952438,-0.925894,-0.930002,-0.941709,-0.960712,-0.956511,-0.948690,-0.951220,-0.947409,-0.949572,-0.944981,-0.943371
-0.928062,-0.933278,-0.938486,-0.939844,-0.938783,-0.803870,-0.718822,-0.868022,-0.948350,-0.955338,-0.951199,-0.929014,-0.942639,-0.952947,-0.956303,-0.957517,-0.945158,-0.935642,-0.947274,-0.949381,-0.952545,-0.925082,-0.931721,-0.942411,-0.957934,-0.956356,-0.952452,-0.951856,-0.948892,-0.948832,-0.947310,-0.947873
-0.927124,-0.933639,-0.937078,-0.938842,-0.937672,-0.800699,-0.718103,-0.866960,-0.940842,-0.949377,-0.938374,-0.923270,-0.938896,-0.947321,-0.950090,-0.956445,-0.949500,-0.932560,-0.944385,-0.948024,-0.950935,-0.921799,-0.927704,-0.940341,-0.961506,-0.956551,-0.947047,-0.943906,-0.945753,-0.946984,-0.945969,-0.947141
-0.925953,-0.930836,-0.936966,-0.937653,-0.935473,-0.797534,-0.711127,-0.866757,-0.940274,-0.950452,-0.948936,-0.922970,-0.938886,-0.948081,-0.954898,-0.952839,-0.947034,-0.935610,-0.945035,-0.944099,-0.945443,-0.921286,-0.925931,-0.940793,-0.960880,-0.955655,-0.952029,-0.950212,-0.941538,-0.944654,-0.945655,-0.944889
-0.924872,-0.927353,-0.931833,-0.929459,-0.928452,-0.799492,-0.714662,-0.861374,-0.939185,-0.947005,-0.944575,-0.922842,-0.934872,-0.945478,-0.951561,-0.953030,-0.943585,-0.925406,-0.935918,-0.943879,-0.943371,-0.917897,-0.922558,-0.936678,-0.958322,-0.957242,-0.951301,-0.950694,-0.945533,-0.942625,-0.941817,-0.941477
-0.921839,-0.924871,-0.932845,-0.931710,-0.929311,-0.778002,-0.689804,-0.849834,-0.943805,-0.950323,-0.945628,-0.923684,-0.932589,-0.946424,-0.955157,-0.955058,-0.944232,-0.929228,-0.938842,-0.944962,-0.946626,-0.914458,-0.922264,-0.936251,-0.956561,-0.955057,-0.949357,-0.948411,-0.946101,-0.943858,-0.941863,-0.941818
-0.880799,-0.882159,-0.883343,-0.888880,-0.885812,-0.702957,-0.589108,-0.800646,-0.934097,-0.931277,-0.941221,-0.899505,-0.918390,-0.935113,-0.939878,-0.941101,-0.930748,-0.895007,-0.907620,-0.906245,-0.922853,-0.886150,-0.887131,-0.906807,-0.937953,-0.935119,-0.926673,-0.930836,-0.933715,-0.925765,-0.920542,-0.925202
-0.891643,-0.902950,-0.904632,-0.913433,-0.899744,-0.697316,-0.565971,-0.799969,-0.933134,-0.940009,-0.941574,-0.904613,-0.923372,-0.939746,-0.950782,-0.944803,-0.935884,-0.912663,-0.925142,-0.927566,-0.931078,-0.888003,-0.898189,-0.916576,-0.943231,-0.940991,-0.932718,-0.938156,-0.935931,-0.935165,-0.931640,-0.931429
-0.905164,-0.910380,-0.914314,-0.912920,-0.912957,-0.749890,-0.645725,-0.838142,-0.937470,-0.935499,-0.939467,-0.910145,-0.928258,-0.936189,-0.942611,-0.942125,-0.929036,-0.912347,-0.926426,-0.931815,-0.936706,-0.902673,-0.908239,-0.921521,-0.946656,-0.941872,-0.938806,-0.935260,-0.937647,-0.931415,-0.927328,-0.928232
-0.888603,-0.899123,-0.904346,-0.908092,-0.896428,-0.743195,-0.644969,-0.819579,-0.929309,-0.934592,-0.930661,-0.905055,-0.920837,-0.929677,-0.941699,-0.936445,-0.924585,-0.911868,-0.917199,-0.921618,-0.931520,-0.892416,-0.895176,-0.906926,-0.935751,-0.933747,-0.930139,-0.931938,-0.930967,-0.928419,-0.919956,-0.931984
-0.902807,-0.916649,-0.922579,-0.921720,-0.914964,-0.768017,-0.674738,-0.838208,-0.928999,-0.932221,-0.931998,-0.917937,-0.924570,-0.939077,-0.948941,-0.946165,-0.934241,-0.926125,-0.931453,-0.938103,-0.940893,-0.908426,-0.915658,-0.929162,-0.945233,-0.948147,-0.936832,-0.939960,-0.941864,-0.935960,-0.931055,-0.935669
-0.902731,-0.918239,-0.921436,-0.922954,-0.918232,-0.760608,-0.661272,-0.840155,-0.936413,-0.944082,-0.941634,-0.918599,-0.930935,-0.944019,-0.944264,-0.944832,-0.935810,-0.926636,-0.932333,-0.936654,-0.941970,-0.906965,-0.915577,-0.929501,-0.947448,-0.947059,-0.940855,-0.940763,-0.943613,-0.938579,-0.933992,-0.933985
-0.915192,-0.920826,-0.924025,-0.922940,-0.919447,-0.765494,-0.664300,-0.843063,-0.941496,-0.945710,-0.946638,-0.919559,-0.933821,-0.948040,-0.954817,-0.951471,-0.945565,-0.925806,-0.934754,-0.936268,-0.943631,-0.910263,-0.916897,-0.933496,-0.953447,-0.951716,-0.945799,-0.949160,-0.948659,-0.941462,-0.938644,-0.940120
-0.918023,-0.926653,-0.929700,-0.928478,-0.922664,-0.766106,-0.672546,-0.844832,-0.939708,-0.946368,-0.951638,-0.922626,-0.940267,-0.950200,-0.958778,-0.959477,-0.948148,-0.932245,-0.941241,-0.942322,-0.948298,-0.912093,-0.919867,-0.934930,-0.958317,-0.957861,-0.953173,-0.954909,-0.951075,-0.944514,-0.945039,-0.945377
-0.911051,-0.924971,-0.927036,-0.923820,-0.912555,-0.756653,-0.654368,-0.819988,-0.924665,-0.942832,-0.949032,-0.924119,-0.938070,-0.948822,-0.955008,-0.957684,-0.946463,-0.929461,-0.938066,-0.941191,-0.946318,-0.911890,-0.921164,-0.932964,-0.956634,-0.955819,-0.949287,-0.950735,-0.949237,-0.938599,-0.940394,-0.945268
-0.905545,-0.913721,-0.922462,-0.918533,-0.912272,-0.764715,-0.675354,-0.845461,-0.922036,-0.930718,-0.932395,-0.915859,-0.930872,-0.938882,-0.939743,-0.939668,-0.936551,-0.920706,-0.929579,-0.930229,-0.933031,-0.906481,-0.910505,-0.930175,-0.950858,-0.945031,-0.943589,-0.944776,-0.936732,-0.933043,-0.929765,-0.936752
-0.907203,-0.916816,-0.922071,-0.916777,-0.911234,-0.754651,-0.660591,-0.835843,-0.925258,-0.934370,-0.933884,-0.911131,-0.933378,-0.937565,-0.947564,-0.946419,-0.941962,-0.923890,-0.930291,-0.933280,-0.941452,-0.904482,-0.910291,-0.928347,-0.947888,-0.947982,-0.944485,-0.945110,-0.942459,-0.936824,-0.932564,-0.936217
-0.898890,-0.906805,-0.912753,-0.904202,-0.904002,-0.751308,-0.657584,-0.824317,-0.920799,-0.929296,-0.941732,-0.904670,-0.920425,-0.929959,-0.940513,-0.936798,-0.927890,-0.913179,-0.925837,-0.921727,-0.935313,-0.897671,-0.907237,-0.923555,-0.940620,-0.941142,-0.930847,-0.938301,-0.928752,-0.928985,-0.925762,-0.920852
-0.903183,-0.912392,-0.917306,-0.912814,-0.904667,-0.754993,-0.661034,-0.836269,-0.923866,-0.928655,-0.937174,-0.915733,-0.925701,-0.929166,-0.940661,-0.942399,-0.926595,-0.915948,-0.920685,-0.924050,-0.929922,-0.898877,-0.909787,-0.924741,-0.942896,-0.941973,-0.932009,-0.937913,-0.932067,-0.930803,-0.928295,-0.930992
-0.908105,-0.916308,-0.919060,-0.919838,-0.914478,-0.749404,-0.652245,-0.840928,-0.930729,-0.937807,-0.943584,-0.918254,-0.936850,-0.944851,-0.954561,-0.950775,-0.940832,-0.925424,-0.930966,-0.937022,-0.940302,-0.902589,-0.914013,-0.929828,-0.952355,-0.950202,-0.948220,-0.949513,-0.943230,-0.937394,-0.937280,-0.940464
-0.906326,-0.914618,-0.923309,-0.918754,-0.914907,-0.750153,-0.658011,-0.839372,-0.933046,-0.943640,-0.941408,-0.918364,-0.936766,-0.944405,-0.955308,-0.948770,-0.935641,-0.924694,-0.934879,-0.934001,-0.943385,-0.904528,-0.915183,-0.929748,-0.951707,-0.952438,-0.946680,-0.947573,-0.942905,-0.938522,-0.933928,-0.931992
-0.913860,-0.925739,-0.928757,-0.923369,-0.919269,-0.746214,-0.651639,-0.835307,-0.939328,-0.944436,-0.940944,-0.917014,-0.941023,-0.945162,-0.959395,-0.955256,-0.946400,-0.928982,-0.938620,-0.933384,-0.945827,-0.905817,-0.915825,-0.933007,-0.956613,-0.957861,-0.951726,-0.951393,-0.946523,-0.939982,-0.942486,-0.943594
-0.917066,-0.925938,-0.928415,-0.924892,-0.921401,-0.757470,-0.673000,-0.849669,-0.938074,-0.947541,-0.947742,-0.921689,-0.940409,-0.944327,-0.960143,-0.957697,-0.945743,-0.930044,-0.938752,-0.935074,-0.944429,-0.906499,-0.920609,-0.932373,-0.958397,-0.958210,-0.953738,-0.950077,-0.948749,-0.939374,-0.943859,-0.944255
-0.916125,-0.925205,-0.927414,-0.926948,-0.921144,-0.768545,-0.686841,-0.851023,-0.938994,-0.945695,-0.941601,-0.921996,-0.938662,-0.946786,-0.959244,-0.956272,-0.940487,-0.931071,-0.939924,-0.936201,-0.946674,-0.910923,-0.920455,-0.933000,-0.955603,-0.957134,-0.948345,-0.950547,-0.946443,-0.941298,-0.941884,-0.942235
-0.911410,-0.920050,-0.923243,-0.921031,-0.918284,-0.767300,-0.688922,-0.853249,-0.937716,-0.944820,-0.943741,-0.921342,-0.938100,-0.943499,-0.950394,-0.944812,-0.941949,-0.927191,-0.933196,-0.933123,-0.945354,-0.908930,-0.915647,-0.931301,-0.951410,-0.955264,-0.952269,-0.950473,-0.942915,-0.936722,-0.938914,-0.932703
-0.911218,-0.920543,-0.925815,-0.916072,-0.914800,-0.758247,-0.685889,-0.850515,-0.931389,-0.934195,-0.941042,-0.908940,-0.924678,-0.938229,-0.948008,-0.950409,-0.936640,-0.914966,-0.928852,-0.929920,-0.937607,-0.902357,-0.900010,-0.926696,-0.939422,-0.944169,-0.938884,-0.934629,-0.942990,-0.933778,-0.937964,-0.932213
-0.891706,-0.907970,-0.911174,-0.905442,-0.903122,-0.759688,-0.678013,-0.844209,-0.914727,-0.919409,-0.925925,-0.890234,-0.908638,-0.919222,-0.922636,-0.927235,-0.913805,-0.906251,-0.916894,-0.917065,-0.918159,-0.894785,-0.888073,-0.910777,-0.923015,-0.925959,-0.919361,-0.919685,-0.924008,-0.915424,-0.915214,-0.922312
-0.858834,-0.870805,-0.871338,-0.880621,-0.880144,-0.726444,-0.627376,-0.826207,-0.917509,-0.917618,-0.934570,-0.887329,-0.902450,-0.924315,-0.938888,-0.930352,-0.907864,-0.887730,-0.899627,-0.899870,-0.913687,-0.865058,-0.870795,-0.894912,-0.922665,-0.919687,-0.919205,-0.917725,-0.915921,-0.907558,-0.908288,-0.917440
-0.906854,-0.914419,-0.917042,-0.916324,-0.912712,-0.749197,-0.666402,-0.845135,-0.935570,-0.936885,-0.952160,-0.912782,-0.935064,-0.942802,-0.953817,-0.952170,-0.941330,-0.921850,-0.931458,-0.935180,-0.939701,-0.897928,-0.905910,-0.925464,-0.949068,-0.947726,-0.943935,-0.945492,-0.943045,-0.933980,-0.937201,-0.936921
-0.910061,-0.910796,-0.916941,-0.917990,-0.914949,-0.764459,-0.680276,-0.845870,-0.935398,-0.931837,-0.941741,-0.914532,-0.937212,-0.938826,-0.949057,-0.948017,-0.935273,-0.918795,-0.935465,-0.936541,-0.944754,-0.907531,-0.912126,-0.929101,-0.951224,-0.947315,-0.941856,-0.945130,-0.947029,-0.935340,-0.934754,-0.942116
-0.911959,-0.922447,-0.921625,-0.918280,-0.918753,-0.757788,-0.668976,-0.849443,-0.935472,-0.941821,-0.954138,-0.914890,-0.939749,-0.939773,-0.958677,-0.957467,-0.936379,-0.925445,-0.940477,-0.938888,-0.947490,-0.902580,-0.914097,-0.930809,-0.954260,-0.954683,-0.949075,-0.946798,-0.949747,-0.939663,-0.947148,-0.946375
-0.910019,-0.919766,-0.924489,-0.920449,-0.919836,-0.760507,-0.673918,-0.850062,-0.940645,-0.941317,-0.956111,-0.914922,-0.939163,-0.943163,-0.950439,-0.949554,-0.938732,-0.927925,-0.937619,-0.938334,-0.947361,-0.907860,-0.913295,-0.931694,-0.951822,-0.954624,-0.950135,-0.947303,-0.949986,-0.941707,-0.943724,-0.940898
-0.903728,-0.917509,-0.916444,-0.914817,-0.911950,-0.753816,-0.668142,-0.851363,-0.928217,-0.937342,-0.950888,-0.907548,-0.933156,-0.942427,-0.953484,-0.955324,-0.936547,-0.921705,-0.931506,-0.930541,-0.939649,-0.898919,-0.909907,-0.919839,-0.946822,-0.949527,-0.946706,-0.943488,-0.941796,-0.934027,-0.944552,-0.939891
-0.922449,-0.928697,-0.934179,-0.929344,-0.928236,-0.780869,-0.696635,-0.861126,-0.947376,-0.944079,-0.954020,-0.917052,-0.945918,-0.952019,-0.961851,-0.963552,-0.948418,-0.934301,-0.949922,-0.945319,-0.949778,-0.913881,-0.917651,-0.935863,-0.958880,-0.960224,-0.954438,-0.950158,-0.955835,-0.944366,-0.951933,-0.951131
-0.931924,-0.936714,-0.938612,-0.936820,-0.933796,-0.793450,-0.715997,-0.869487,-0.947977,-0.949303,-0.963619,-0.925317,-0.951611,-0.956375,-0.963385,-0.966137,-0.953358,-0.941983,-0.957026,-0.951065,-0.955917,-0.921773,-0.928383,-0.939932,-0.960311,-0.961838,-0.957039,-0.954948,-0.956761,-0.949516,-0.955762,-0.953812
-0.934115,-0.942059,-0.944382,-0.937592,-0.938472,-0.790004,-0.696994,-0.856191,-0.941715,-0.944574,-0.958897,-0.927982,-0.948870,-0.953818,-0.960281,-0.958961,-0.950269,-0.944697,-0.957892,-0.956257,-0.957601,-0.928332,-0.935498,-0.943567,-0.954650,-0.959077,-0.958739,-0.952201,-0.956226,-0.945923,-0.954339,-0.949758
-0.934393,-0.942776,-0.945473,-0.939953,-0.939730,-0.824380,-0.752620,-0.879408,-0.945194,-0.944014,-0.962272,-0.932466,-0.950463,-0.954191,-0.960865,-0.963208,-0.949027,-0.945048,-0.960921,-0.959699,-0.961712,-0.928806,-0.936901,-0.947075,-0.959355,-0.957918,-0.956256,-0.953652,-0.955811,-0.948590,-0.950220,-0.956584
-0.936563,-0.939808,-0.947720,-0.940032,-0.940273,-0.819949,-0.747820,-0.878722,-0.931782,-0.941156,-0.957487,-0.929400,-0.941465,-0.948724,-0.955675,-0.953737,-0.946651,-0.943968,-0.957234,-0.955067,-0.959410,-0.928614,-0.935374,-0.945316,-0.952725,-0.949650,-0.947770,-0.944302,-0.953731,-0.947595,-0.949204,-0.949667
-0.934768,-0.936033,-0.940700,-0.937573,-0.939093,-0.810661,-0.732205,-0.870076,-0.941950,-0.944167,-0.955123,-0.923895,-0.939060,-0.945492,-0.952314,-0.955497,-0.947973,-0.941272,-0.950595,-0.959181,-0.952274,-0.926213,-0.928689,-0.943898,-0.948343,-0.955507,-0.948495,-0.946734,-0.954136,-0.945356,-0.948672,-0.948372
-0.909231,-0.910950,-0.925640,-0.913110,-0.914281,-0.791341,-0.718707,-0.847259,-0.900843,-0.921762,-0.938530,-0.914844,-0.917343,-0.932714,-0.920606,-0.927578,-0.932519,-0.922106,-0.938192,-0.936917,-0.940405,-0.913056,-0.921772,-0.930187,-0.933008,-0.930106,-0.931387,-0.929332,-0.931203,-0.933836,-0.922685,-0.929520
-0.907451,-0.908639,-0.911517,-0.909317,-0.912238,-0.791248,-0.712295,-0.847362,-0.922332,-0.926282,-0.922095,-0.902347,-0.914362,-0.920128,-0.929804,-0.921412,-0.920925,-0.917179,-0.924123,-0.932372,-0.923510,-0.906283,-0.910838,-0.922759,-0.928063,-0.934646,-0.937606,-0.925379,-0.927604,-0.923691,-0.918949,-0.917828
-0.912910,-0.920182,-0.917102,-0.929181,-0.929359,-0.812635,-0.736592,-0.873901,-0.918539,-0.914842,-0.948859,-0.921633,-0.930466,-0.941470,-0.940725,-0.938840,-0.933014,-0.931331,-0.934822,-0.943012,-0.949338,-0.917684,-0.924407,-0.937010,-0.947921,-0.953057,-0.949019,-0.947522,-0.947546,-0.938692,-0.937842,-0.936877
-0.933765,-0.937321,-0.941684,-0.940203,-0.943225,-0.803070,-0.717587,-0.874499,-0.943162,-0.940735,-0.959310,-0.916307,-0.945573,-0.952036,-0.960474,-0.962449,-0.954952,-0.943276,-0.954591,-0.951687,-0.951582,-0.920434,-0.929983,-0.943016,-0.957531,-0.958418,-0.956632,-0.950720,-0.955520,-0.946751,-0.952658,-0.950522
-0.931766,-0.936001,-0.938035,-0.935314,-0.940691,-0.816141,-0.741930,-0.881012,-0.928885,-0.939467,-0.960722,-0.914466,-0.939928,-0.949485,-0.958849,-0.957379,-0.952322,-0.939389,-0.947531,-0.947493,-0.951143,-0.916668,-0.927295,-0.943382,-0.958666,-0.958491,-0.955810,-0.953241,-0.954678,-0.942880,-0.947355,-0.948978
-0.939192,-0.944569,-0.945454,-0.940784,-0.948270,-0.836330,-0.769570,-0.895539,-0.941069,-0.939374,-0.965494,-0.925785,-0.947821,-0.951718,-0.960133,-0.962051,-0.957240,-0.939290,-0.956237,-0.951168,-0.955115,-0.927006,-0.935008,-0.949351,-0.964388,-0.964959,-0.958822,-0.954993,-0.957142,-0.947721,-0.954974,-0.952399
-0.933669,-0.941629,-0.940982,-0.941351,-0.940846,-0.833256,-0.770745,-0.889225,-0.942853,-0.940510,-0.965077,-0.920417,-0.944867,-0.949318,-0.951812,-0.958999,-0.949567,-0.944985,-0.948153,-0.950977,-0.947048,-0.927598,-0.933761,-0.942578,-0.959714,-0.959903,-0.954205,-0.950826,-0.951479,-0.939299,-0.950159,-0.947521
-0.932788,-0.944127,-0.941844,-0.942862,-0.941402,-0.835792,-0.765977,-0.886801,-0.939591,-0.941266,-0.951773,-0.929492,-0.940558,-0.948618,-0.951612,-0.953933,-0.940349,-0.944082,-0.952876,-0.948130,-0.952957,-0.926557,-0.932697,-0.944131,-0.957068,-0.958861,-0.951970,-0.952597,-0.951030,-0.946014,-0.950969,-0.945298
-0.931212,-0.939709,-0.940042,-0.941620,-0.947605,-0.820111,-0.746521,-0.871772,-0.941068,-0.936630,-0.953285,-0.921042,-0.940825,-0.949560,-0.958283,-0.953841,-0.948721,-0.942745,-0.955289,-0.955040,-0.954645,-0.928578,-0.923774,-0.942509,-0.961011,-0.956934,-0.955394,-0.951498,-0.950195,-0.944642,-0.947356,-0.944629
-0.929310,-0.937572,-0.942597,-0.940237,-0.944094,-0.831478,-0.760400,-0.884584,-0.947617,-0.937898,-0.957452,-0.929976,-0.946910,-0.952824,-0.946310,-0.952476,-0.947636,-0.947541,-0.949557,-0.953390,-0.954287,-0.926426,-0.937898,-0.946505,-0.956016,-0.950190,-0.945626,-0.951197,-0.956953,-0.943267,-0.942837,-0.935300
-0.933100,-0.942407,-0.945217,-0.943713,-0.947501,-0.828944,-0.751569,-0.884750,-0.948252,-0.947693,-0.948136,-0.928625,-0.947510,-0.954826,-0.952692,-0.954689,-0.947016,-0.947626,-0.952883,-0.955287,-0.956885,-0.930288,-0.937257,-0.948464,-0.957591,-0.963699,-0.956227,-0.954754,-0.956019,-0.948423,-0.947647,-0.944087
-0.922435,-0.930275,-0.933969,-0.932891,-0.934602,-0.804760,-0.720835,-0.867320,-0.942473,-0.936152,-0.941865,-0.919778,-0.933528,-0.945358,-0.953229,-0.947616,-0.942785,-0.942228,-0.947309,-0.946261,-0.944265,-0.918199,-0.919059,-0.929304,-0.940257,-0.942102,-0.938504,-0.946475,-0.943839,-0.938258,-0.940488,-0.939336
-0.931592,-0.938760,-0.941089,-0.936923,-0.942076,-0.804244,-0.724519,-0.874534,-0.945318,-0.945994,-0.955043,-0.921441,-0.943187,-0.953338,-0.956705,-0.959148,-0.952700,-0.944497,-0.954887,-0.952722,-0.952054,-0.921885,-0.926363,-0.941220,-0.952260,-0.956339,-0.948957,-0.947508,-0.955935,-0.945075,-0.950206,-0.950217
-0.909103,-0.922037,-0.922696,-0.918776,-0.925674,-0.792274,-0.721075,-0.868263,-0.927151,-0.928843,-0.928187,-0.906961,-0.921872,-0.933025,-0.930259,-0.924254,-0.930525,-0.915960,-0.925562,-0.932686,-0.932224,-0.898687,-0.904172,-0.925566,-0.935509,-0.938530,-0.930523,-0.927420,-0.932904,-0.921733,-0.921520,-0.921924
-0.914361,-0.924639,-0.925706,-0.928310,-0.932831,-0.808341,-0.724534,-0.867637,-0.932589,-0.932407,-0.952794,-0.912694,-0.924094,-0.934466,-0.945419,-0.939433,-0.939824,-0.932422,-0.942834,-0.940930,-0.944637,-0.914647,-0.921937,-0.928832,-0.949448,-0.943287,-0.945465,-0.942721,-0.944804,-0.932550,-0.937633,-0.938054
-0.920288,-0.932755,-0.929606,-0.935756,-0.937656,-0.805787,-0.719723,-0.870269,-0.940464,-0.937758,-0.957591,-0.922410,-0.935310,-0.945338,-0.949864,-0.949245,-0.942307,-0.936921,-0.945488,-0.940242,-0.945691,-0.916848,-0.923473,-0.938267,-0.952165,-0.951559,-0.951796,-0.947492,-0.948252,-0.935789,-0.945205,-0.938821
-0.911971,-0.924369,-0.923082,-0.928662,-0.931318,-0.796018,-0.704774,-0.847515,-0.933050,-0.929000,-0.957765,-0.908084,-0.927746,-0.941732,-0.947753,-0.944811,-0.937146,-0.931108,-0.938743,-0.933935,-0.938931,-0.912643,-0.918287,-0.931789,-0.944172,-0.942234,-0.947539,-0.940636,-0.940576,-0.925519,-0.932752,-0.933544
-0.925457,-0.928503,-0.931027,-0.934977,-0.938535,-0.813749,-0.726182,-0.865749,-0.933457,-0.936091,-0.949009,-0.921368,-0.932761,-0.946221,-0.948079,-0.947348,-0.941855,-0.936914,-0.945917,-0.947420,-0.947446,-0.922859,-0.928969,-0.938883,-0.953915,-0.948694,-0.948293,-0.946585,-0.950839,-0.935225,-0.945125,-0.935147
-0.923971,-0.930981,-0.925609,-0.934422,-0.933932,-0.814623,-0.732336,-0.870147,-0.932678,-0.938521,-0.944166,-0.927767,-0.937727,-0.939115,-0.944902,-0.939355,-0.937540,-0.937191,-0.937921,-0.940525,-0.946335,-0.924492,-0.933515,-0.942928,-0.954995,-0.945726,-0.953102,-0.948137,-0.946627,-0.938380,-0.942513,-0.933448
-0.921691,-0.933964,-0.934866,-0.939201,-0.937714,-0.812699,-0.727104,-0.865785,-0.934189,-0.940101,-0.952254,-0.926076,-0.940680,-0.943476,-0.954557,-0.947808,-0.937337,-0.940620,-0.945642,-0.941479,-0.943762,-0.917688,-0.930419,-0.944234,-0.950327,-0.945964,-0.948156,-0.944728,-0.948348,-0.939735,-0.946557,-0.938965
-0.927955,-0.938644,-0.939133,-0.943217,-0.942829,-0.812450,-0.722667,-0.871719,-0.920797,-0.930628,-0.953240,-0.925376,-0.939242,-0.947557,-0.955721,-0.947590,-0.943319,-0.945117,-0.949640,-0.945207,-0.950896,-0.924740,-0.935270,-0.945540,-0.954581,-0.951860,-0.950338,-0.943364,-0.950462,-0.943288,-0.943498,-0.939559
-0.928046,-0.939681,-0.937483,-0.942881,-0.941515,-0.808344,-0.721029,-0.874128,-0.938701,-0.944354,-0.957972,-0.926503,-0.940738,-0.937846,-0.951167,-0.952440,-0.946457,-0.943443,-0.947336,-0.946190,-0.953177,-0.924402,-0.934709,-0.944193,-0.958217,-0.956513,-0.954973,-0.951805,-0.953088,-0.943915,-0.949680,-0.940494
-0.931056,-0.941591,-0.941017,-0.944579,-0.945690,-0.810131,-0.727129,-0.874018,-0.942190,-0.946472,-0.960251,-0.925843,-0.941272,-0.951151,-0.956948,-0.953823,-0.951489,-0.946947,-0.954817,-0.950283,-0.952650,-0.924770,-0.935414,-0.946463,-0.958906,-0.956771,-0.957810,-0.952955,-0.955461,-0.946139,-0.952259,-0.946871
-0.927051,-0.934651,-0.933098,-0.935104,-0.933686,-0.774043,-0.682207,-0.860743,-0.940636,-0.941628,-0.957829,-0.914888,-0.937235,-0.946837,-0.959809,-0.954600,-0.949197,-0.935496,-0.948151,-0.939615,-0.943624,-0.903904,-0.920605,-0.932381,-0.955955,-0.954267,-0.951595,-0.947742,-0.947258,-0.939088,-0.948115,-0.943304
-0.922966,-0.933568,-0.932077,-0.936520,-0.930941,-0.789738,-0.699109,-0.854734,-0.936280,-0.941926,-0.954000,-0.917867,-0.933145,-0.941634,-0.957654,-0.952785,-0.947079,-0.936981,-0.946530,-0.941603,-0.946673,-0.912732,-0.923477,-0.935946,-0.953789,-0.950009,-0.951618,-0.947102,-0.947975,-0.938198,-0.946529,-0.940466
-0.924811,-0.933083,-0.933170,-0.935516,-0.933938,-0.797206,-0.712068,-0.868205,-0.936377,-0.938368,-0.955132,-0.917791,-0.933401,-0.941279,-0.956540,-0.950658,-0.947560,-0.936828,-0.944622,-0.941135,-0.943625,-0.911807,-0.923861,-0.936100,-0.954403,-0.950899,-0.950374,-0.945111,-0.944050,-0.932741,-0.944730,-0.940806
-0.921682,-0.928884,-0.929104,-0.931945,-0.928354,-0.792174,-0.706367,-0.864733,-0.933191,-0.937942,-0.949153,-0.913549,-0.930039,-0.940506,-0.952224,-0.947850,-0.945412,-0.936026,-0.945799,-0.942022,-0.944887,-0.907343,-0.922935,-0.934505,-0.948157,-0.946303,-0.943957,-0.941470,-0.944217,-0.936080,-0.941445,-0.939388
-0.906591,-0.920943,-0.922897,-0.922493,-0.919330,-0.790565,-0.711232,-0.857902,-0.907607,-0.925485,-0.945628,-0.908303,-0.922196,-0.922436,-0.932714,-0.922177,-0.926334,-0.921032,-0.929381,-0.930343,-0.928732,-0.904330,-0.908912,-0.926070,-0.936682,-0.934994,-0.931057,-0.933063,-0.930810,-0.924986,-0.922841,-0.923999
-0.901130,-0.908555,-0.914045,-0.914952,-0.921929,-0.814301,-0.737390,-0.869832,-0.915209,-0.913510,-0.938638,-0.915388,-0.914271,-0.923005,-0.923986,-0.907162,-0.914751,-0.917267,-0.929093,-0.923365,-0.926253,-0.915623,-0.917541,-0.922572,-0.927122,-0.930974,-0.934780,-0.931729,-0.931296,-0.924525,-0.911748,-0.907319
-0.913627,-0.927198,-0.925095,-0.923711,-0.926406,-0.815656,-0.737292,-0.875373,-0.934654,-0.929533,-0.927017,-0.919615,-0.927342,-0.925763,-0.927819,-0.931528,-0.926937,-0.928388,-0.929691,-0.931055,-0.935953,-0.907005,-0.924320,-0.932768,-0.941226,-0.936963,-0.933954,-0.930889,-0.937148,-0.929801,-0.925890,-0.935950
-0.921720,-0.935112,-0.939118,-0.936670,-0.937485,-0.815614,-0.732749,-0.880275,-0.929980,-0.920791,-0.952056,-0.922108,-0.940064,-0.940212,-0.943772,-0.942609,-0.937407,-0.938891,-0.945062,-0.942752,-0.946406,-0.922746,-0.930446,-0.942248,-0.946201,-0.946935,-0.943568,-0.939576,-0.951435,-0.939437,-0.942731,-0.942730
-0.930198,-0.941788,-0.941508,-0.942893,-0.936365,-0.808960,-0.722136,-0.868123,-0.935676,-0.941574,-0.954330,-0.924149,-0.940363,-0.946376,-0.956379,-0.950341,-0.943877,-0.939508,-0.946505,-0.944010,-0.949516,-0.918286,-0.932197,-0.942866,-0.954764,-0.952419,-0.954426,-0.949599,-0.952779,-0.943073,-0.947776,-0.945909
-0.930963,-0.940221,-0.940018,-0.941908,-0.939426,-0.813737,-0.731351,-0.872152,-0.937684,-0.943863,-0.951665,-0.929028,-0.940309,-0.945391,-0.951990,-0.951129,-0.942284,-0.940106,-0.948338,-0.945382,-0.950549,-0.921812,-0.933164,-0.943646,-0.954911,-0.950989,-0.950788,-0.949250,-0.953292,-0.942820,-0.945482,-0.944172
-0.931420,-0.940335,-0.941009,-0.938585,-0.936132,-0.800272,-0.714795,-0.870849,-0.935793,-0.944164,-0.955571,-0.920247,-0.940696,-0.943974,-0.953488,-0.949772,-0.943553,-0.937060,-0.945581,-0.938729,-0.948123,-0.917155,-0.931705,-0.941943,-0.955032,-0.951758,-0.953786,-0.947472,-0.951124,-0.935954,-0.947108,-0.943201
-0.923921,-0.930674,-0.927500,-0.927539,-0.925602,-0.753076,-0.645852,-0.839797,-0.931802,-0.937421,-0.945305,-0.903436,-0.930034,-0.939446,-0.947573,-0.947308,-0.936633,-0.924642,-0.940603,-0.931419,-0.937765,-0.901100,-0.908993,-0.926693,-0.950878,-0.945881,-0.948286,-0.939116,-0.945812,-0.932010,-0.940805,-0.942246
-0.917001,-0.929119,-0.929051,-0.929219,-0.927865,-0.784719,-0.698794,-0.857710,-0.929839,-0.935220,-0.948768,-0.916473,-0.931449,-0.937555,-0.947014,-0.944486,-0.936642,-0.929290,-0.937920,-0.933804,-0.939432,-0.909478,-0.921297,-0.936355,-0.948991,-0.945808,-0.945977,-0.941346,-0.946275,-0.933538,-0.936450,-0.938647
-0.811655,-0.826484,-0.829992,-0.826903,-0.827942,-0.765993,-0.697508,-0.805598,-0.812176,-0.822318,-0.843125,-0.848475,-0.843754,-0.837866,-0.826513,-0.802551,-0.806222,-0.822600,-0.828924,-0.837419,-0.837945,-0.836933,-0.836672,-0.853163,-0.855317,-0.859390,-0.853039,-0.862105,-0.871116,-0.855348,-0.827523,-0.790947
-0.824620,-0.837723,-0.840693,-0.839411,-0.835546,-0.767312,-0.705561,-0.813074,-0.832428,-0.840098,-0.854370,-0.850205,-0.856283,-0.853872,-0.844226,-0.817510,-0.818470,-0.835387,-0.837638,-0.840289,-0.844823,-0.840580,-0.837150,-0.853212,-0.855115,-0.856244,-0.848541,-0.863769,-0.874670,-0.856465,-0.827922,-0.807502
-0.843723,-0.851489,-0.849552,-0.845921,-0.842955,-0.765746,-0.701382,-0.820847,-0.829073,-0.833270,-0.856981,-0.850607,-0.866412,-0.864098,-0.856699,-0.830937,-0.840997,-0.849227,-0.849555,-0.847731,-0.851105,-0.839598,-0.844949,-0.861433,-0.864545,-0.864434,-0.860029,-0.871310,-0.883084,-0.870863,-0.848109,-0.825965
-0.845055,-0.854697,-0.850026,-0.849370,-0.844981,-0.766950,-0.705580,-0.820318,-0.824491,-0.832862,-0.862572,-0.858806,-0.869729,-0.870096,-0.856602,-0.833204,-0.840150,-0.849787,-0.850406,-0.849557,-0.852661,-0.845855,-0.844053,-0.861945,-0.864713,-0.867684,-0.863082,-0.875057,-0.888821,-0.875238,-0.851673,-0.828679
-0.844226,-0.853812,-0.851722,-0.848142,-0.844454,-0.774472,-0.721618,-0.824811,-0.828537,-0.838384,-0.860850,-0.860572,-0.870417,-0.868096,-0.853939,-0.832953,-0.843302,-0.851188,-0.850928,-0.849949,-0.855536,-0.847476,-0.845268,-0.863740,-0.864702,-0.864915,-0.864957,-0.876193,-0.887902,-0.873723,-0.852357,-0.830379
-0.836158,-0.844180,-0.840443,-0.837314,-0.833734,-0.777023,-0.720239,-0.816576,-0.826732,-0.837550,-0.853372,-0.860087,-0.866316,-0.860946,-0.843637,-0.828077,-0.831440,-0.838018,-0.833516,-0.838236,-0.847003,-0.842097,-0.841402,-0.860336,-0.857984,-0.861994,-0.864060,-0.876399,-0.886080,-0.871003,-0.844468,-0.826492
-0.843934,-0.851099,-0.855600,-0.851266,-0.844210,-0.771678,-0.705465,-0.803571,-0.830075,-0.845601,-0.857037,-0.859923,-0.871291,-0.867507,-0.848480,-0.832897,-0.839205,-0.851476,-0.851158,-0.851953,-0.855006,-0.847640,-0.845117,-0.859715,-0.859500,-0.862432,-0.859240,-0.872965,-0.885643,-0.872460,-0.851410,-0.828365
-0.834983,-0.857732,-0.854139,-0.848699,-0.838569,-0.763465,-0.708509,-0.816618,-0.814682,-0.835053,-0.855773,-0.852886,-0.868619,-0.860039,-0.824527,-0.797266,-0.814989,-0.836861,-0.847840,-0.837435,-0.840145,-0.833078,-0.834347,-0.861065,-0.861281,-0.865090,-0.862945,-0.874891,-0.890832,-0.870354,-0.824970,-0.796722
-0.865911,-0.877341,-0.877118,-0.876532,-0.870380,-0.768955,-0.697346,-0.822734,-0.851121,-0.861130,-0.877452,-0.867575,-0.887794,-0.883810,-0.877644,-0.860352,-0.866465,-0.872929,-0.874142,-0.871214,-0.877740,-0.868968,-0.864328,-0.879158,-0.881744,-0.878334,-0.876272,-0.885791,-0.898827,-0.883719,-0.869941,-0.851150
-0.860132,-0.865547,-0.865012,-0.864763,-0.860155,-0.772236,-0.704728,-0.826099,-0.840812,-0.855454,-0.869422,-0.863423,-0.881816,-0.876227,-0.872179,-0.852908,-0.859041,-0.865745,-0.861826,-0.859497,-0.863064,-0.858482,-0.855246,-0.870769,-0.874543,-0.873245,-0.871580,-0.879029,-0.893586,-0.878648,-0.864744,-0.844519
-0.838219,-0.844521,-0.847162,-0.843690,-0.836100,-0.745661,-0.676717,-0.803981,-0.820812,-0.842623,-0.853072,-0.840812,-0.860806,-0.859689,-0.858205,-0.837691,-0.838390,-0.837261,-0.836212,-0.835676,-0.844881,-0.834832,-0.835938,-0.850291,-0.861306,-0.858592,-0.857530,-0.864387,-0.877068,-0.857107,-0.841726,-0.821854
-0.841786,-0.852084,-0.855223,-0.856197,-0.852802,-0.762303,-0.696212,-0.816761,-0.842422,-0.853604,-0.863139,-0.851721,-0.869537,-0.863293,-0.853358,-0.838977,-0.841802,-0.841560,-0.852101,-0.847198,-0.859264,-0.851910,-0.846777,-0.863161,-0.869601,-0.866446,-0.868044,-0.871161,-0.875566,-0.859655,-0.842118,-0.819553
-0.834879,-0.832402,-0.832294,-0.826953,-0.835524,-0.750075,-0.693119,-0.797820,-0.836644,-0.837874,-0.853597,-0.843008,-0.860418,-0.856663,-0.848919,-0.831144,-0.837985,-0.841531,-0.838076,-0.839741,-0.845351,-0.849345,-0.841898,-0.859239,-0.864301,-0.862870,-0.860432,-0.866126,-0.874105,-0.863039,-0.846851,-0.826448
-0.825032,-0.841096,-0.844654,-0.845622,-0.844696,-0.775714,-0.717353,-0.825247,-0.832508,-0.848789,-0.858474,-0.848227,-0.856615,-0.844279,-0.838746,-0.819439,-0.830594,-0.845425,-0.842139,-0.841581,-0.851140,-0.853220,-0.847413,-0.866567,-0.872706,-0.871182,-0.873081,-0.868000,-0.862035,-0.858164,-0.837434,-0.816670
-0.832004,-0.843286,-0.845114,-0.846150,-0.842827,-0.775142,-0.721903,-0.823604,-0.835735,-0.842446,-0.855058,-0.853728,-0.861504,-0.853224,-0.838784,-0.819335,-0.833157,-0.846766,-0.836192,-0.846239,-0.854438,-0.853377,-0.847355,-0.869403,-0.873539,-0.864486,-0.867949,-0.867726,-0.874109,-0.861135,-0.841290,-0.819296
-0.819826,-0.823368,-0.820723,-0.827160,-0.825947,-0.774360,-0.740658,-0.811675,-0.779471,-0.772552,-0.828329,-0.841071,-0.846433,-0.838210,-0.810148,-0.801269,-0.822500,-0.824651,-0.815882,-0.822070,-0.830014,-0.830624,-0.815668,-0.831243,-0.827805,-0.814682,-0.817620,-0.848783,-0.876511,-0.848962,-0.820391,-0.808199
-0.828599,-0.839482,-0.839596,-0.839499,-0.839517,-0.783489,-0.747932,-0.820307,-0.813844,-0.826997,-0.845904,-0.849940,-0.857288,-0.847798,-0.836640,-0.812352,-0.829677,-0.839526,-0.836239,-0.840504,-0.848883,-0.851038,-0.840123,-0.852529,-0.844760,-0.840904,-0.839634,-0.856699,-0.873073,-0.862536,-0.833686,-0.821644
-0.835808,-0.841791,-0.845216,-0.845304,-0.848151,-0.788352,-0.746592,-0.829993,-0.822495,-0.833763,-0.849626,-0.854732,-0.862329,-0.852853,-0.833545,-0.815758,-0.833056,-0.846124,-0.834949,-0.843645,-0.850260,-0.854045,-0.848922,-0.859600,-0.855765,-0.850158,-0.854834,-0.864310,-0.875292,-0.867447,-0.836801,-0.823414
-0.837716,-0.846608,-0.850055,-0.850278,-0.849108,-0.782792,-0.740315,-0.832010,-0.827570,-0.835632,-0.856239,-0.850776,-0.863870,-0.856113,-0.838564,-0.823071,-0.839367,-0.849786,-0.842504,-0.846189,-0.853667,-0.854686,-0.850149,-0.864910,-0.864085,-0.856900,-0.858977,-0.869221,-0.878870,-0.869952,-0.843600,-0.827303
-0.839676,-0.846415,-0.850747,-0.848546,-0.848367,-0.785335,-0.741326,-0.831870,-0.825067,-0.835704,-0.854473,-0.852825,-0.864298,-0.856203,-0.840662,-0.824769,-0.839589,-0.849007,-0.843020,-0.844639,-0.851722,-0.852448,-0.848422,-0.863771,-0.863732,-0.858022,-0.858808,-0.868778,-0.879046,-0.869139,-0.844497,-0.827818
-0.837711,-0.844841,-0.850228,-0.847433,-0.847794,-0.780860,-0.744074,-0.830798,-0.824101,-0.835632,-0.853846,-0.848805,-0.863036,-0.853806,-0.837859,-0.822319,-0.838874,-0.848086,-0.842808,-0.838150,-0.848804,-0.848565,-0.845395,-0.862989,-0.862161,-0.856198,-0.857093,-0.867052,-0.877228,-0.867905,-0.843094,-0.825759
-0.838442,-0.852491,-0.854258,-0.856755,-0.849731,-0.753109,-0.693123,-0.827093,-0.823099,-0.838507,-0.860202,-0.841351,-0.858295,-0.856053,-0.845228,-0.830743,-0.847521,-0.853105,-0.854000,-0.852530,-0.861074,-0.851391,-0.846959,-0.864137,-0.866265,-0.858652,-0.855562,-0.866951,-0.877228,-0.870402,-0.847470,-0.832833
-0.843915,-0.854144,-0.857485,-0.859835,-0.856399,-0.777360,-0.728186,-0.830269,-0.830959,-0.836652,-0.863568,-0.857634,-0.869300,-0.862292,-0.846034,-0.832573,-0.848782,-0.858402,-0.856058,-0.859236,-0.866204,-0.858275,-0.855286,-0.869286,-0.868168,-0.861655,-0.861084,-0.874830,-0.882955,-0.874853,-0.849853,-0.836065
-0.827617,-0.835011,-0.839160,-0.847364,-0.846486,-0.774943,-0.729304,-0.825899,-0.811991,-0.834825,-0.852659,-0.848364,-0.856582,-0.845607,-0.832626,-0.819316,-0.823315,-0.841127,-0.836089,-0.845426,-0.851079,-0.850414,-0.843148,-0.856687,-0.852709,-0.852842,-0.850247,-0.862310,-0.868202,-0.858173,-0.833899,-0.817508
-0.820171,-0.834198,-0.840245,-0.839739,-0.840297,-0.769411,-0.722512,-0.820076,-0.823898,-0.832470,-0.841617,-0.838229,-0.848824,-0.842353,-0.829167,-0.819126,-0.823422,-0.832496,-0.836978,-0.841209,-0.849938,-0.844763,-0.833899,-0.852474,-0.851397,-0.839694,-0.840684,-0.853323,-0.851084,-0.844186,-0.822267,-0.806694
-0.839455,-0.845548,-0.848833,-0.850186,-0.850088,-0.763373,-0.716007,-0.824989,-0.831838,-0.842536,-0.854076,-0.843820,-0.854745,-0.851187,-0.835772,-0.835638,-0.852541,-0.851369,-0.851173,-0.851086,-0.858626,-0.848688,-0.845094,-0.860027,-0.860087,-0.855791,-0.854546,-0.867091,-0.871539,-0.869527,-0.846695,-0.837366
-0.827376,-0.833324,-0.836797,-0.839192,-0.837447,-0.733692,-0.668156,-0.795327,-0.802244,-0.800790,-0.831033,-0.817445,-0.816357,-0.822325,-0.819402,-0.811512,-0.837082,-0.837551,-0.838013,-0.841071,-0.853277,-0.831492,-0.829321,-0.846148,-0.850534,-0.842908,-0.838835,-0.844314,-0.841602,-0.842565,-0.825247,-0.810401
-0.800510,-0.828050,-0.834875,-0.828929,-0.837662,-0.754929,-0.704790,-0.799211,-0.816610,-0.814267,-0.842582,-0.837110,-0.842377,-0.827339,-0.803337,-0.780847,-0.803351,-0.827138,-0.828624,-0.840509,-0.847422,-0.831388,-0.831848,-0.846789,-0.843860,-0.837355,-0.832471,-0.853943,-0.861833,-0.848719,-0.811361,-0.779086
-0.823766,-0.836401,-0.843446,-0.838743,-0.841195,-0.749544,-0.699197,-0.812937,-0.825041,-0.831444,-0.859181,-0.840555,-0.853330,-0.847379,-0.828705,-0.818747,-0.830258,-0.842070,-0.840234,-0.845825,-0.854339,-0.840235,-0.839818,-0.857338,-0.860254,-0.858826,-0.861501,-0.873787,-0.870086,-0.864924,-0.838450,-0.822363
-0.828204,-0.837397,-0.845870,-0.841521,-0.845208,-0.757676,-0.704497,-0.813826,-0.820028,-0.825587,-0.862037,-0.850880,-0.857368,-0.853319,-0.834331,-0.827408,-0.839586,-0.845688,-0.845067,-0.851111,-0.857273,-0.844562,-0.844737,-0.859642,-0.863621,-0.854440,-0.858847,-0.872624,-0.878461,-0.868542,-0.842934,-0.827378
-0.828641,-0.837457,-0.842772,-0.840891,-0.842230,-0.742250,-0.693474,-0.813682,-0.824252,-0.830646,-0.860873,-0.846713,-0.855446,-0.848074,-0.832142,-0.824538,-0.836737,-0.842650,-0.841017,-0.847960,-0.851224,-0.839833,-0.839295,-0.855264,-0.861543,-0.858228,-0.860154,-0.872059,-0.873782,-0.867598,-0.842046,-0.824824
-0.826074,-0.836041,-0.842417,-0.841012,-0.842974,-0.752328,-0.702182,-0.814779,-0.824570,-0.830159,-0.859769,-0.850525,-0.854758,-0.846884,-0.830548,-0.822420,-0.835023,-0.842640,-0.836532,-0.848090,-0.854360,-0.843219,-0.840394,-0.857744,-0.861843,-0.856858,-0.859929,-0.873723,-0.874611,-0.867548,-0.839284,-0.825264
-0.828279,-0.837242,-0.843806,-0.841587,-0.845063,-0.756512,-0.706571,-0.816092,-0.826775,-0.833396,-0.861166,-0.852298,-0.857881,-0.852200,-0.831279,-0.823945,-0.836296,-0.843054,-0.841827,-0.848973,-0.855520,-0.842539,-0.841844,-0.857844,-0.862320,-0.857993,-0.862064,-0.874631,-0.876369,-0.870661,-0.841403,-0.826157
-0.820587,-0.833035,-0.838692,-0.835413,-0.840378,-0.743034,-0.681845,-0.805807,-0.816583,-0.829898,-0.855392,-0.843572,-0.852412,-0.848476,-0.828396,-0.821710,-0.832482,-0.835309,-0.838023,-0.843836,-0.851267,-0.835374,-0.834167,-0.852082,-0.858413,-0.854727,-0.856078,-0.867428,-0.870715,-0.864614,-0.837187,-0.822860
-0.823500,-0.829875,-0.837855,-0.835905,-0.841501,-0.745183,-0.692433,-0.810281,-0.819822,-0.820064,-0.860234,-0.852127,-0.851911,-0.846827,-0.826408,-0.819655,-0.829554,-0.841384,-0.837469,-0.846149,-0.854204,-0.838768,-0.837904,-0.853427,-0.853423,-0.855607,-0.859114,-0.872486,-0.871087,-0.863231,-0.836621,-0.822498
-0.821083,-0.832166,-0.836114,-0.834616,-0.837861,-0.743165,-0.686005,-0.802626,-0.812616,-0.820785,-0.851797,-0.849132,-0.851669,-0.845290,-0.829191,-0.820190,-0.832876,-0.838319,-0.838788,-0.844796,-0.853615,-0.837684,-0.835779,-0.854406,-0.852666,-0.852507,-0.856286,-0.870157,-0.872260,-0.867008,-0.834952,-0.820006
-0.807679,-0.824345,-0.825937,-0.826962,-0.831234,-0.724529,-0.658367,-0.793884,-0.819211,-0.822321,-0.844176,-0.843288,-0.841064,-0.835839,-0.810993,-0.806939,-0.824447,-0.833080,-0.832450,-0.839983,-0.843365,-0.832179,-0.825045,-0.843796,-0.847530,-0.844251,-0.842745,-0.861445,-0.860023,-0.858711,-0.828505,-0.811417
-0.780186,-0.795448,-0.798340,-0.797647,-0.802727,-0.726390,-0.671940,-0.780193,-0.779989,-0.786034,-0.821758,-0.813507,-0.807498,-0.796547,-0.780331,-0.768012,-0.786779,-0.802655,-0.806758,-0.818536,-0.824938,-0.815461,-0.804331,-0.827074,-0.823220,-0.817570,-0.818674,-0.833724,-0.828916,-0.815324,-0.784920,-0.768933
-0.776208,-0.795300,-0.801999,-0.804560,-0.801796,-0.739278,-0.687678,-0.792725,-0.789754,-0.790661,-0.815695,-0.818353,-0.813880,-0.800973,-0.772286,-0.767925,-0.776863,-0.799210,-0.805773,-0.821519,-0.826089,-0.813091,-0.806452,-0.820760,-0.826855,-0.825536,-0.807899,-0.826778,-0.829529,-0.812749,-0.776026,-0.766078
-0.838095,-0.843816,-0.847923,-0.847612,-0.850179,-0.761320,-0.707016,-0.828305,-0.829924,-0.832569,-0.867263,-0.855537,-0.860077,-0.856156,-0.840384,-0.833383,-0.842842,-0.851779,-0.857006,-0.859717,-0.863797,-0.849997,-0.847081,-0.859610,-0.865864,-0.862080,-0.864173,-0.880748,-0.885822,-0.871163,-0.849747,-0.838282
-0.844240,-0.848879,-0.848900,-0.849107,-0.850421,-0.744395,-0.687626,-0.824431,-0.828818,-0.839458,-0.874197,-0.848029,-0.866477,-0.868645,-0.848861,-0.843883,-0.850644,-0.854630,-0.860583,-0.861502,-0.866409,-0.848191,-0.846641,-0.862187,-0.869980,-0.868105,-0.865887,-0.883347,-0.887915,-0.875868,-0.855797,-0.842299
-0.848030,-0.855485,-0.857523,-0.858949,-0.858820,-0.769627,-0.712932,-0.832562,-0.833068,-0.841829,-0.876654,-0.860021,-0.870007,-0.866601,-0.855841,-0.845536,-0.852055,-0.857366,-0.867097,-0.867187,-0.870844,-0.854011,-0.852142,-0.865874,-0.869144,-0.867468,-0.865391,-0.884886,-0.889488,-0.875855,-0.856264,-0.844382
-0.842092,-0.852159,-0.854261,-0.856703,-0.856872,-0.766888,-0.709790,-0.828506,-0.830459,-0.831950,-0.874409,-0.859142,-0.865779,-0.866129,-0.852034,-0.842292,-0.848630,-0.855420,-0.861297,-0.865755,-0.869004,-0.850714,-0.847189,-0.860102,-0.866137,-0.862171,-0.858848,-0.880815,-0.885210,-0.871178,-0.852322,-0.843368
-0.763991,-0.759510,-0.763220,-0.754831,-0.749621,-0.669231,-0.639483,-0.736512,-0.773994,-0.776650,-0.815550,-0.811315,-0.827493,-0.822361,-0.815528,-0.771596,-0.775388,-0.773005,-0.771582,-0.769908,-0.778630,-0.770892,-0.774871,-0.787318,-0.788841,-0.783511,-0.802967,-0.843055,-0.860273,-0.838478,-0.804066,-0.788061
-0.792143,-0.803250,-0.803690,-0.804026,-0.802453,-0.723511,-0.666900,-0.783716,-0.801198,-0.811602,-0.836057,-0.832263,-0.844138,-0.840901,-0.812063,-0.795777,-0.794149,-0.809285,-0.812114,-0.812093,-0.819136,-0.798367,-0.804593,-0.819899,-0.824222,-0.823231,-0.829068,-0.855381,-0.863712,-0.848133,-0.815972,-0.799383
-0.800086,-0.809287,-0.811451,-0.811373,-0.811196,-0.713921,-0.647339,-0.782309,-0.808537,-0.818881,-0.844233,-0.828668,-0.846027,-0.846666,-0.820009,-0.803613,-0.806008,-0.814466,-0.817338,-0.822085,-0.826901,-0.803562,-0.801138,-0.821166,-0.831832,-0.826874,-0.830924,-0.857930,-0.870520,-0.852671,-0.818352,-0.807768
-0.802691,-0.813773,-0.815752,-0.815657,-0.814440,-0.732484,-0.670867,-0.788596,-0.809684,-0.811476,-0.847125,-0.836608,-0.846928,-0.844975,-0.821238,-0.803413,-0.806245,-0.817083,-0.823326,-0.825002,-0.831045,-0.811489,-0.814208,-0.830998,-0.834159,-0.836420,-0.833815,-0.859497,-0.865692,-0.853066,-0.823229,-0.806569
-0.804470,-0.812445,-0.815254,-0.816410,-0.813887,-0.728482,-0.663179,-0.787170,-0.814431,-0.815690,-0.844562,-0.836446,-0.847038,-0.845256,-0.819225,-0.805018,-0.807625,-0.819394,-0.825174,-0.823433,-0.830240,-0.811075,-0.812672,-0.828619,-0.836650,-0.836933,-0.836235,-0.862046,-0.869342,-0.853016,-0.824121,-0.808355
-0.806428,-0.817718,-0.818018,-0.819327,-0.816529,-0.722068,-0.656928,-0.785215,-0.809162,-0.810025,-0.850647,-0.832006,-0.850260,-0.847992,-0.821664,-0.809618,-0.809509,-0.817673,-0.825515,-0.825029,-0.829830,-0.809132,-0.812824,-0.830528,-0.838635,-0.838602,-0.838924,-0.864252,-0.871779,-0.852477,-0.826601,-0.809713
-0.792262,-0.799611,-0.804917,-0.803572,-0.804266,-0.721300,-0.665607,-0.776986,-0.783522,-0.793147,-0.835366,-0.821090,-0.836796,-0.830486,-0.804651,-0.789124,-0.793281,-0.804393,-0.813483,-0.809104,-0.817654,-0.803526,-0.805499,-0.818567,-0.831164,-0.827424,-0.825938,-0.848161,-0.849315,-0.832091,-0.802633,-0.786386
-0.798266,-0.804671,-0.807969,-0.807968,-0.811247,-0.736856,-0.673957,-0.790889,-0.801008,-0.800472,-0.834456,-0.835174,-0.840673,-0.833838,-0.795145,-0.788353,-0.796564,-0.811845,-0.813335,-0.814578,-0.824769,-0.810564,-0.808629,-0.822777,-0.831802,-0.826284,-0.830341,-0.857335,-0.864242,-0.844132,-0.810285,-0.796616
-0.779756,-0.787653,-0.792490,-0.793685,-0.795821,-0.718204,-0.662016,-0.769400,-0.781630,-0.783988,-0.820738,-0.813407,-0.822060,-0.813663,-0.798444,-0.778658,-0.768941,-0.786973,-0.793342,-0.798790,-0.806798,-0.792797,-0.778943,-0.804277,-0.813596,-0.808381,-0.816403,-0.835401,-0.837400,-0.820290,-0.786452,-0.771690
-0.810447,-0.819537,-0.820249,-0.819020,-0.819781,-0.741639,-0.678742,-0.795608,-0.814106,-0.817775,-0.849315,-0.845782,-0.856157,-0.853425,-0.829970,-0.807666,-0.811165,-0.824391,-0.826370,-0.827504,-0.835288,-0.820270,-0.820354,-0.834264,-0.838956,-0.836088,-0.841271,-0.864543,-0.876482,-0.856452,-0.827015,-0.811763
-0.810568,-0.821738,-0.820010,-0.819316,-0.817520,-0.737719,-0.681846,-0.791739,-0.813084,-0.814859,-0.848828,-0.843562,-0.849135,-0.852883,-0.824710,-0.808244,-0.809961,-0.823309,-0.824188,-0.829592,-0.834034,-0.817929,-0.822776,-0.831001,-0.840002,-0.834007,-0.838038,-0.861237,-0.873356,-0.854751,-0.829464,-0.810645
-0.816685,-0.825432,-0.823836,-0.822254,-0.820460,-0.755106,-0.692841,-0.800197,-0.817761,-0.819429,-0.849245,-0.856423,-0.860721,-0.856712,-0.829238,-0.813299,-0.816067,-0.828025,-0.831234,-0.831523,-0.836401,-0.825205,-0.826824,-0.837292,-0.843655,-0.836000,-0.841865,-0.870423,-0.880162,-0.862744,-0.833387,-0.817150
-0.793879,-0.818794,-0.818156,-0.811925,-0.812390,-0.739368,-0.669603,-0.786926,-0.803653,-0.809699,-0.841096,-0.844608,-0.838389,-0.837891,-0.788599,-0.755011,-0.771606,-0.811795,-0.817076,-0.821420,-0.829931,-0.813114,-0.815873,-0.826095,-0.835748,-0.828882,-0.833405,-0.857828,-0.860022,-0.844044,-0.799821,-0.762278
-0.821886,-0.829700,-0.832010,-0.833090,-0.833611,-0.739745,-0.675549,-0.800058,-0.828789,-0.835967,-0.860157,-0.857006,-0.867008,-0.868262,-0.838189,-0.831321,-0.827411,-0.835866,-0.841031,-0.841081,-0.847152,-0.832115,-0.832171,-0.843723,-0.852207,-0.843895,-0.847515,-0.872596,-0.879789,-0.865486,-0.836911,-0.832494
-0.825151,-0.833923,-0.829461,-0.836921,-0.837448,-0.742465,-0.676494,-0.802000,-0.813190,-0.823050,-0.853337,-0.854219,-0.866040,-0.864042,-0.839076,-0.828936,-0.829273,-0.836242,-0.844112,-0.841338,-0.847545,-0.828494,-0.830866,-0.841130,-0.849633,-0.841668,-0.843219,-0.869140,-0.882177,-0.862506,-0.839231,-0.830709
-0.826907,-0.831536,-0.831243,-0.833754,-0.829075,-0.731809,-0.666837,-0.798782,-0.836376,-0.841154,-0.859834,-0.852213,-0.861687,-0.864467,-0.840822,-0.834075,-0.833047,-0.833435,-0.840951,-0.834039,-0.843150,-0.825416,-0.831085,-0.843104,-0.857546,-0.852716,-0.855663,-0.875620,-0.879204,-0.864965,-0.840497,-0.833580
-0.805951,-0.814255,-0.801536,-0.804741,-0.809519,-0.714478,-0.663830,-0.785380,-0.788170,-0.813308,-0.841485,-0.833530,-0.849585,-0.852909,-0.832234,-0.808581,-0.807933,-0.805567,-0.808768,-0.809997,-0.820273,-0.808089,-0.808305,-0.825179,-0.836237,-0.840726,-0.845129,-0.872441,-0.881972,-0.855548,-0.830706,-0.821474
-0.796138,-0.808761,-0.805752,-0.802376,-0.803369,-0.709848,-0.647576,-0.768643,-0.794963,-0.806090,-0.838895,-0.836321,-0.851291,-0.851404,-0.813576,-0.797683,-0.800095,-0.805664,-0.807616,-0.808826,-0.818874,-0.795413,-0.801167,-0.817141,-0.828889,-0.826421,-0.830846,-0.862323,-0.877067,-0.855472,-0.819228,-0.807006
-0.804741,-0.813702,-0.813192,-0.811238,-0.808803,-0.734388,-0.685136,-0.789665,-0.795115,-0.803980,-0.837394,-0.839673,-0.850366,-0.850366,-0.812010,-0.798689,-0.803001,-0.812815,-0.815278,-0.814831,-0.822272,-0.808981,-0.811121,-0.821365,-0.829393,-0.827379,-0.831583,-0.861431,-0.876380,-0.853249,-0.817566,-0.806666
-0.760936,-0.776630,-0.780144,-0.778819,-0.779829,-0.716323,-0.682971,-0.769167,-0.765012,-0.782201,-0.803943,-0.804994,-0.813870,-0.807149,-0.767557,-0.756934,-0.765666,-0.776834,-0.780910,-0.787814,-0.801397,-0.792301,-0.786379,-0.801049,-0.806787,-0.802203,-0.802892,-0.827039,-0.829118,-0.810405,-0.781029,-0.760876
-0.761166,-0.774085,-0.778288,-0.778321,-0.775170,-0.734488,-0.689724,-0.768532,-0.757876,-0.776139,-0.811746,-0.820992,-0.810160,-0.805724,-0.774963,-0.752339,-0.763920,-0.776901,-0.780511,-0.788651,-0.796967,-0.792048,-0.788605,-0.802177,-0.802188,-0.804147,-0.802485,-0.825344,-0.829515,-0.809228,-0.772582,-0.754259
-0.754327,-0.772763,-0.771484,-0.779354,-0.779517,-0.738149,-0.697710,-0.767487,-0.761067,-0.773862,-0.795158,-0.818460,-0.811357,-0.798945,-0.751326,-0.744628,-0.755924,-0.782201,-0.777114,-0.788921,-0.788361,-0.790038,-0.781167,-0.785328,-0.788259,-0.788762,-0.781519,-0.816837,-0.818417,-0.810555,-0.765956,-0.754182
-0.781936,-0.800430,-0.792453,-0.794610,-0.794662,-0.748085,-0.701350,-0.778719,-0.785686,-0.799118,-0.816536,-0.839425,-0.832956,-0.828524,-0.794076,-0.767718,-0.777313,-0.803412,-0.797350,-0.806052,-0.812560,-0.798861,-0.807226,-0.823010,-0.813563,-0.807192,-0.813403,-0.838411,-0.849458,-0.831065,-0.800438,-0.784381
-0.801094,-0.815232,-0.815033,-0.810888,-0.814847,-0.749667,-0.702929,-0.794500,-0.800283,-0.813458,-0.837566,-0.849261,-0.858564,-0.850789,-0.810291,-0.798783,-0.805560,-0.820198,-0.815743,-0.819881,-0.828266,-0.815623,-0.818910,-0.830578,-0.833093,-0.830086,-0.835343,-0.863777,-0.877674,-0.859340,-0.822654,-0.809223
-0.796502,-0.809870,-0.810269,-0.808321,-0.808062,-0.738128,-0.685384,-0.786037,-0.796739,-0.811769,-0.832706,-0.843522,-0.855622,-0.849507,-0.812338,-0.798945,-0.803675,-0.815762,-0.809852,-0.820033,-0.825243,-0.810467,-0.812901,-0.826531,-0.830056,-0.823648,-0.831335,-0.862461,-0.875401,-0.856193,-0.821441,-0.806006
-0.780040,-0.793382,-0.796624,-0.795844,-0.792122,-0.692971,-0.652781,-0.760578,-0.790152,-0.804780,-0.828702,-0.835252,-0.843060,-0.839891,-0.798598,-0.790308,-0.792881,-0.806185,-0.802525,-0.815065,-0.817157,-0.797107,-0.801140,-0.811590,-0.820946,-0.819359,-0.815920,-0.851874,-0.867084,-0.845892,-0.812190,-0.798102
-0.798206,-0.810444,-0.810895,-0.809295,-0.809505,-0.731036,-0.671452,-0.781169,-0.793065,-0.808241,-0.833970,-0.841887,-0.857460,-0.849154,-0.805042,-0.791932,-0.800298,-0.812829,-0.813625,-0.816619,-0.823691,-0.807947,-0.811200,-0.821672,-0.827544,-0.824444,-0.829208,-0.862458,-0.877131,-0.857214,-0.817244,-0.802539
-0.799718,-0.810692,-0.811413,-0.810111,-0.809494,-0.724984,-0.670545,-0.781528,-0.797018,-0.808513,-0.834309,-0.840135,-0.855402,-0.849523,-0.812988,-0.798390,-0.804961,-0.814053,-0.814655,-0.818146,-0.824153,-0.809483,-0.812226,-0.824613,-0.831294,-0.828002,-0.833146,-0.861171,-0.876570,-0.856907,-0.821891,-0.805902
-0.715261,-0.715929,-0.717209,-0.718351,-0.725743,-0.664155,-0.618502,-0.729298,-0.717826,-0.751688,-0.771038,-0.783392,-0.825787,-0.807716,-0.774316,-0.734894,-0.738761,-0.732331,-0.734577,-0.725270,-0.737982,-0.734700,-0.736042,-0.755630,-0.765127,-0.751976,-0.774336,-0.822603,-0.864429,-0.832567,-0.786051,-0.773708
-0.845222,-0.854019,-0.859029,-0.858477,-0.861398,-0.783703,-0.726431,-0.825217,-0.833137,-0.842381,-0.870893,-0.876435,-0.878124,-0.872770,-0.846100,-0.841719,-0.855116,-0.858267,-0.862641,-0.867543,-0.872163,-0.861682,-0.862679,-0.871521,-0.879297,-0.875995,-0.878567,-0.891450,-0.890701,-0.880454,-0.856986,-0.846492
-0.838706,-0.844759,-0.849066,-0.849363,-0.850348,-0.770836,-0.715418,-0.815210,-0.808333,-0.811412,-0.859897,-0.870807,-0.872765,-0.873294,-0.832738,-0.832296,-0.853759,-0.849619,-0.851290,-0.864090,-0.867104,-0.851673,-0.851780,-0.852256,-0.857847,-0.850169,-0.854547,-0.880033,-0.885688,-0.877737,-0.851936,-0.843272
-0.827952,-0.836343,-0.838483,-0.838307,-0.844072,-0.760140,-0.709602,-0.803007,-0.802738,-0.817716,-0.842026,-0.854190,-0.855428,-0.849930,-0.827904,-0.818564,-0.842152,-0.842462,-0.843911,-0.845178,-0.858057,-0.844963,-0.848863,-0.854506,-0.860290,-0.851569,-0.852345,-0.869713,-0.874269,-0.868022,-0.840999,-0.830160
-0.814653,-0.824046,-0.824663,-0.826752,-0.834816,-0.765873,-0.719517,-0.801646,-0.794076,-0.805867,-0.833165,-0.848558,-0.841835,-0.840017,-0.802407,-0.807121,-0.828553,-0.831023,-0.831754,-0.840264,-0.846388,-0.837712,-0.830436,-0.845602,-0.850242,-0.838505,-0.839196,-0.856044,-0.867018,-0.852510,-0.825208,-0.817147
-0.811842,-0.823854,-0.825360,-0.822331,-0.823746,-0.738615,-0.685064,-0.793321,-0.806316,-0.824528,-0.846667,-0.844447,-0.851560,-0.847211,-0.810548,-0.801378,-0.815838,-0.825542,-0.828452,-0.830236,-0.836058,-0.828434,-0.828654,-0.842446,-0.853319,-0.847278,-0.849124,-0.868904,-0.873139,-0.858260,-0.825975,-0.809942
-0.811112,-0.828505,-0.832326,-0.831052,-0.829637,-0.752626,-0.703189,-0.802541,-0.818267,-0.826703,-0.853484,-0.854862,-0.856310,-0.850128,-0.810441,-0.801221,-0.816922,-0.831288,-0.831542,-0.835304,-0.845707,-0.833301,-0.837551,-0.846080,-0.857702,-0.853357,-0.849971,-0.872039,-0.875790,-0.864035,-0.829748,-0.807890
-0.805785,-0.820615,-0.824449,-0.819913,-0.819851,-0.739295,-0.672284,-0.789784,-0.817692,-0.832010,-0.850627,-0.853405,-0.849839,-0.844914,-0.796977,-0.799096,-0.814813,-0.828334,-0.823498,-0.832114,-0.840338,-0.830648,-0.829689,-0.841672,-0.853413,-0.848635,-0.847320,-0.867586,-0.870603,-0.859160,-0.822085,-0.809951
-0.819307,-0.832453,-0.833424,-0.832634,-0.831672,-0.734703,-0.670178,-0.801347,-0.822790,-0.832428,-0.857060,-0.851673,-0.860693,-0.856083,-0.822758,-0.813898,-0.828914,-0.836190,-0.838844,-0.840545,-0.848575,-0.833072,-0.833434,-0.848822,-0.859460,-0.856386,-0.854823,-0.875265,-0.879492,-0.865071,-0.839131,-0.822663
-0.816447,-0.830952,-0.832217,-0.829033,-0.827456,-0.733793,-0.682362,-0.800146,-0.822426,-0.827847,-0.855618,-0.850387,-0.855707,-0.854808,-0.818681,-0.812299,-0.827621,-0.831433,-0.836443,-0.838409,-0.847093,-0.831316,-0.834079,-0.845808,-0.859075,-0.856691,-0.854136,-0.874107,-0.877530,-0.863860,-0.837771,-0.818286
-0.813127,-0.828126,-0.829823,-0.828306,-0.827656,-0.734033,-0.675844,-0.798842,-0.821131,-0.822088,-0.854931,-0.849136,-0.856030,-0.853623,-0.821412,-0.812147,-0.825962,-0.829839,-0.836502,-0.837173,-0.846765,-0.827822,-0.830863,-0.844178,-0.856028,-0.854514,-0.852430,-0.872063,-0.877002,-0.862501,-0.837031,-0.820381
-0.815560,-0.827106,-0.828830,-0.827693,-0.827619,-0.743908,-0.692424,-0.803157,-0.820220,-0.825821,-0.854488,-0.850908,-0.857875,-0.853955,-0.818360,-0.810929,-0.824581,-0.831936,-0.835900,-0.836164,-0.843714,-0.829868,-0.830402,-0.846385,-0.856496,-0.854338,-0.851220,-0.873018,-0.876811,-0.864298,-0.833870,-0.819220
-0.818217,-0.833304,-0.835051,-0.834756,-0.832119,-0.763800,-0.718834,-0.815403,-0.821073,-0.830200,-0.854314,-0.855396,-0.860967,-0.854375,-0.820142,-0.807789,-0.824518,-0.836441,-0.836569,-0.839828,-0.848404,-0.838301,-0.836548,-0.848439,-0.855826,-0.854323,-0.852905,-0.874780,-0.880120,-0.866594,-0.834549,-0.819858
-0.814568,-0.829931,-0.830457,-0.833022,-0.830437,-0.760107,-0.717073,-0.814902,-0.823020,-0.832160,-0.851727,-0.857682,-0.861847,-0.854150,-0.822833,-0.810140,-0.825121,-0.834250,-0.835392,-0.842726,-0.847113,-0.838428,-0.834103,-0.847868,-0.853170,-0.852235,-0.852223,-0.876349,-0.876631,-0.867130,-0.837517,-0.818806
-0.814149,-0.830863,-0.834496,-0.831921,-0.831417,-0.760225,-0.712217,-0.812144,-0.818569,-0.827238,-0.855269,-0.857433,-0.859580,-0.854800,-0.813753,-0.804934,-0.821500,-0.836055,-0.839007,-0.842275,-0.849615,-0.839443,-0.837692,-0.848818,-0.853243,-0.853422,-0.854639,-0.876480,-0.880020,-0.865223,-0.834389,-0.816654
-0.812716,-0.822511,-0.820060,-0.819631,-0.822876,-0.753103,-0.712314,-0.812071,-0.815698,-0.821608,-0.857731,-0.844235,-0.858318,-0.849451,-0.821926,-0.813158,-0.822774,-0.825875,-0.824030,-0.820415,-0.838945,-0.823321,-0.829281,-0.846281,-0.852958,-0.854984,-0.854593,-0.874014,-0.878905,-0.864709,-0.838401,-0.822652
-0.841290,-0.841371,-0.843078,-0.846550,-0.845021,-0.761152,-0.698951,-0.813726,-0.853751,-0.859032,-0.878124,-0.865027,-0.884147,-0.882743,-0.849841,-0.845825,-0.848600,-0.854819,-0.855842,-0.855233,-0.862394,-0.852175,-0.848845,-0.862310,-0.858456,-0.856619,-0.855446,-0.879341,-0.889775,-0.875632,-0.856891,-0.842163
-0.850051,-0.852010,-0.851334,-0.850733,-0.850193,-0.747665,-0.679056,-0.811218,-0.867559,-0.864120,-0.879247,-0.859058,-0.884722,-0.882765,-0.851896,-0.859598,-0.857515,-0.858074,-0.862012,-0.858342,-0.865791,-0.848723,-0.847427,-0.868795,-0.865234,-0.872162,-0.868247,-0.884543,-0.886365,-0.875411,-0.871741,-0.851794
-0.854117,-0.853084,-0.853487,-0.852356,-0.851882,-0.747817,-0.681733,-0.812780,-0.868122,-0.868502,-0.888011,-0.861880,-0.886539,-0.889379,-0.862980,-0.863566,-0.860336,-0.856739,-0.863039,-0.861463,-0.871697,-0.859372,-0.858615,-0.873556,-0.874392,-0.876727,-0.881579,-0.889746,-0.893840,-0.884460,-0.875672,-0.861355
-0.861094,-0.862059,-0.862738,-0.863288,-0.862443,-0.770252,-0.702575,-0.823687,-0.879505,-0.882794,-0.896739,-0.879093,-0.897210,-0.898066,-0.870279,-0.870626,-0.870378,-0.869973,-0.874377,-0.877329,-0.883498,-0.871223,-0.867507,-0.883277,-0.883164,-0.884762,-0.887247,-0.899337,-0.901590,-0.889458,-0.880151,-0.867456
-0.853515,-0.852006,-0.854324,-0.850731,-0.854353,-0.764554,-0.700013,-0.819706,-0.877272,-0.881102,-0.888110,-0.871403,-0.888085,-0.891117,-0.853163,-0.861742,-0.858863,-0.861492,-0.867700,-0.872189,-0.872694,-0.863344,-0.859020,-0.874963,-0.876451,-0.873364,-0.881936,-0.894379,-0.890327,-0.877892,-0.868240,-0.854693
-0.853789,-0.859093,-0.857570,-0.860138,-0.857873,-0.756679,-0.687827,-0.797240,-0.876700,-0.872968,-0.893713,-0.876268,-0.890148,-0.891351,-0.863581,-0.863134,-0.862116,-0.862469,-0.870821,-0.875250,-0.880888,-0.867350,-0.864979,-0.876995,-0.879536,-0.881609,-0.883848,-0.894480,-0.895064,-0.889043,-0.876036,-0.862676
-0.848146,-0.847487,-0.847758,-0.850849,-0.845286,-0.746394,-0.669728,-0.807358,-0.868863,-0.868302,-0.891779,-0.870186,-0.889421,-0.889952,-0.852230,-0.861697,-0.859694,-0.858900,-0.859427,-0.863025,-0.869220,-0.855052,-0.856131,-0.873677,-0.876369,-0.877320,-0.878691,-0.892914,-0.897203,-0.884383,-0.872991,-0.859501
-0.840524,-0.844907,-0.846491,-0.844667,-0.844815,-0.744187,-0.665891,-0.805466,-0.869039,-0.871574,-0.889197,-0.869573,-0.887366,-0.888733,-0.853917,-0.857114,-0.853639,-0.856360,-0.855027,-0.861287,-0.865955,-0.857625,-0.856838,-0.873285,-0.871449,-0.872196,-0.875746,-0.887551,-0.893577,-0.880696,-0.865239,-0.854421
-0.847131,-0.844780,-0.850682,-0.851936,-0.853377,-0.752262,-0.663792,-0.814159,-0.878829,-0.875044,-0.892091,-0.871990,-0.887167,-0.886783,-0.850529,-0.866911,-0.862630,-0.858483,-0.869170,-0.869199,-0.875367,-0.864426,-0.858494,-0.875941,-0.871150,-0.874311,-0.875006,-0.889509,-0.887048,-0.881866,-0.871191,-0.863821
-0.850412,-0.851072,-0.857785,-0.855038,-0.852195,-0.684588,-0.559179,-0.788641,-0.871848,-0.875967,-0.890039,-0.864772,-0.883363,-0.884979,-0.853366,-0.857386,-0.860959,-0.860723,-0.869788,-0.870075,-0.876933,-0.852175,-0.858551,-0.874484,-0.874371,-0.874991,-0.875016,-0.885865,-0.886610,-0.879634,-0.868212,-0.858196
-0.833805,-0.838837,-0.849532,-0.844215,-0.850631,-0.753430,-0.670752,-0.806199,-0.852971,-0.870498,-0.878600,-0.861008,-0.867278,-0.862808,-0.842581,-0.836458,-0.830743,-0.846024,-0.850729,-0.859631,-0.864954,-0.860619,-0.854169,-0.871574,-0.862185,-0.860805,-0.859802,-0.867877,-0.861702,-0.858375,-0.840867,-0.827139
-0.835809,-0.842561,-0.852351,-0.853150,-0.857095,-0.777362,-0.693607,-0.822578,-0.867157,-0.873306,-0.883932,-0.874039,-0.872144,-0.866120,-0.838493,-0.842068,-0.840063,-0.850610,-0.858255,-0.862795,-0.870436,-0.863090,-0.862575,-0.876000,-0.869474,-0.865759,-0.866260,-0.869031,-0.868411,-0.863687,-0.841132,-0.838768
-0.830439,-0.834607,-0.839088,-0.840979,-0.836591,-0.747809,-0.657987,-0.780703,-0.853673,-0.865174,-0.876195,-0.862232,-0.866266,-0.871442,-0.838115,-0.837772,-0.837875,-0.844340,-0.850197,-0.852151,-0.855863,-0.849217,-0.848920,-0.860006,-0.857672,-0.852485,-0.855503,-0.867312,-0.869629,-0.860736,-0.842156,-0.828263
-0.857717,-0.852734,-0.858440,-0.857543,-0.861968,-0.774613,-0.700368,-0.827864,-0.876503,-0.881950,-0.896067,-0.881377,-0.896246,-0.893278,-0.868065,-0.868362,-0.860930,-0.865544,-0.868269,-0.867713,-0.876591,-0.867367,-0.865794,-0.877562,-0.873023,-0.869763,-0.869460,-0.887908,-0.893015,-0.883994,-0.874618,-0.861898
-0.851069,-0.852309,-0.853282,-0.852612,-0.851212,-0.779264,-0.703812,-0.823043,-0.869869,-0.878339,-0.881343,-0.880267,-0.890423,-0.888542,-0.854687,-0.861437,-0.853250,-0.855833,-0.861882,-0.864720,-0.868979,-0.867354,-0.853263,-0.867610,-0.865245,-0.866280,-0.868142,-0.883446,-0.892822,-0.882267,-0.866817,-0.850570
-0.861397,-0.861171,-0.864127,-0.862078,-0.864382,-0.776494,-0.700812,-0.827687,-0.878099,-0.884835,-0.897669,-0.879921,-0.885723,-0.892394,-0.873680,-0.866659,-0.861026,-0.869152,-0.872465,-0.874568,-0.879338,-0.867324,-0.866738,-0.881199,-0.884620,-0.882328,-0.877424,-0.891817,-0.895582,-0.886992,-0.874183,-0.863123
-0.865108,-0.863640,-0.870224,-0.867364,-0.869180,-0.777567,-0.697770,-0.833839,-0.885651,-0.888190,-0.902272,-0.886234,-0.900828,-0.898084,-0.874044,-0.875125,-0.866991,-0.872762,-0.872888,-0.875329,-0.881944,-0.872148,-0.876227,-0.889715,-0.887849,-0.884311,-0.886051,-0.895927,-0.901597,-0.891984,-0.878875,-0.866757
-0.858492,-0.855737,-0.863021,-0.860831,-0.861613,-0.740608,-0.653549,-0.820931,-0.884651,-0.887061,-0.902274,-0.877400,-0.893252,-0.892221,-0.869625,-0.869674,-0.859591,-0.866960,-0.868550,-0.871312,-0.876039,-0.862902,-0.868329,-0.882558,-0.883163,-0.878710,-0.880753,-0.892226,-0.897501,-0.887847,-0.875497,-0.863431
-0.860538,-0.861726,-0.869199,-0.867173,-0.867630,-0.754245,-0.677795,-0.827386,-0.886974,-0.890112,-0.902584,-0.879736,-0.895826,-0.893492,-0.875661,-0.873179,-0.867644,-0.876604,-0.880855,-0.882187,-0.886822,-0.867707,-0.871034,-0.887525,-0.887827,-0.883536,-0.880813,-0.893438,-0.896128,-0.889070,-0.877232,-0.868929
-0.867418,-0.868562,-0.874406,-0.869543,-0.872658,-0.751969,-0.672986,-0.829468,-0.884178,-0.891684,-0.905093,-0.875203,-0.898850,-0.897670,-0.879621,-0.877288,-0.870057,-0.877805,-0.879867,-0.882870,-0.886766,-0.869978,-0.875182,-0.889979,-0.890539,-0.886670,-0.886646,-0.896684,-0.901147,-0.891675,-0.881073,-0.871525
-0.866352,-0.865841,-0.872462,-0.868210,-0.870076,-0.752878,-0.674095,-0.825952,-0.887938,-0.891213,-0.903928,-0.883780,-0.897618,-0.896132,-0.876997,-0.874860,-0.866586,-0.872699,-0.879626,-0.880521,-0.883381,-0.866056,-0.873004,-0.884687,-0.885559,-0.882382,-0.881351,-0.896652,-0.896879,-0.886813,-0.879834,-0.870486
-0.867766,-0.868101,-0.874058,-0.869686,-0.870976,-0.759606,-0.684365,-0.827981,-0.887430,-0.891907,-0.904476,-0.883155,-0.898491,-0.897116,-0.876427,-0.877493,-0.868922,-0.873627,-0.879620,-0.880089,-0.881871,-0.868666,-0.873136,-0.887233,-0.890015,-0.885593,-0.885297,-0.895927,-0.899395,-0.888395,-0.879386,-0.869051
-0.837983,-0.836383,-0.839420,-0.833151,-0.832986,-0.724179,-0.658287,-0.799586,-0.845631,-0.854089,-0.869156,-0.843555,-0.853789,-0.856121,-0.842355,-0.843198,-0.839004,-0.839644,-0.848051,-0.846155,-0.848410,-0.835738,-0.833731,-0.857846,-0.859028,-0.855620,-0.860876,-0.864300,-0.869776,-0.852896,-0.851869,-0.841676
-0.830453,-0.828192,-0.837993,-0.828490,-0.835825,-0.756390,-0.688406,-0.809837,-0.843475,-0.855497,-0.874637,-0.861756,-0.859482,-0.858160,-0.820882,-0.833513,-0.834439,-0.842972,-0.842590,-0.842447,-0.848353,-0.840474,-0.846329,-0.858024,-0.862131,-0.856246,-0.854748,-0.868878,-0.873908,-0.865092,-0.851807,-0.833623
-0.831556,-0.826373,-0.839409,-0.837995,-0.836506,-0.740620,-0.662672,-0.796120,-0.849454,-0.849767,-0.864826,-0.848118,-0.852548,-0.842432,-0.816629,-0.833906,-0.825704,-0.839937,-0.839642,-0.850828,-0.853156,-0.843774,-0.845083,-0.859214,-0.845927,-0.846001,-0.842153,-0.844975,-0.840057,-0.830766,-0.822534,-0.810532
-0.856380,-0.857950,-0.863266,-0.859863,-0.859312,-0.765749,-0.690699,-0.818600,-0.875642,-0.876628,-0.887193,-0.877355,-0.883948,-0.878688,-0.866890,-0.856259,-0.858715,-0.861281,-0.862909,-0.865966,-0.870330,-0.858310,-0.865395,-0.870861,-0.870886,-0.871769,-0.864235,-0.877804,-0.891357,-0.881078,-0.862262,-0.850122
-0.856412,-0.851763,-0.865632,-0.858188,-0.853404,-0.764492,-0.683198,-0.823618,-0.864915,-0.861204,-0.881216,-0.872348,-0.871155,-0.873363,-0.860672,-0.856944,-0.861610,-0.864473,-0.861816,-0.866250,-0.869692,-0.856202,-0.864835,-0.867307,-0.866395,-0.868614,-0.860220,-0.874902,-0.884272,-0.873856,-0.866181,-0.853013
-0.851975,-0.851598,-0.859491,-0.852394,-0.849835,-0.761944,-0.687903,-0.812557,-0.858433,-0.871841,-0.877824,-0.874573,-0.884979,-0.878556,-0.860830,-0.854832,-0.855599,-0.859109,-0.855829,-0.861010,-0.869535,-0.854028,-0.858327,-0.862084,-0.859016,-0.855777,-0.855742,-0.869428,-0.898306,-0.881499,-0.860953,-0.849828
-0.853353,-0.858821,-0.865227,-0.856843,-0.859362,-0.756351,-0.680524,-0.817483,-0.868543,-0.871366,-0.886733,-0.875701,-0.886966,-0.884788,-0.868018,-0.860438,-0.857791,-0.864028,-0.865128,-0.867333,-0.869712,-0.856005,-0.865854,-0.865104,-0.866549,-0.863364,-0.864352,-0.884233,-0.899998,-0.882636,-0.866069,-0.855875
-0.858827,-0.858770,-0.867507,-0.860379,-0.861005,-0.748965,-0.667477,-0.819458,-0.874148,-0.877231,-0.888224,-0.871898,-0.884404,-0.884637,-0.868747,-0.867555,-0.864103,-0.866269,-0.867993,-0.867728,-0.869903,-0.852921,-0.865298,-0.868847,-0.873205,-0.869366,-0.869468,-0.882359,-0.895044,-0.880874,-0.870560,-0.860423
-0.838865,-0.841737,-0.849076,-0.846711,-0.844876,-0.711550,-0.619488,-0.791548,-0.865091,-0.868131,-0.878042,-0.860795,-0.872409,-0.876147,-0.862525,-0.863830,-0.853449,-0.854910,-0.853898,-0.861606,-0.858763,-0.838827,-0.850419,-0.853521,-0.865131,-0.860269,-0.857784,-0.871094,-0.885848,-0.871619,-0.861212,-0.854299
-0.857817,-0.856746,-0.865931,-0.861410,-0.862523,-0.734121,-0.657750,-0.816472,-0.875671,-0.879584,-0.889301,-0.873327,-0.881276,-0.884392,-0.864326,-0.866485,-0.865834,-0.865645,-0.867375,-0.868467,-0.868230,-0.852767,-0.860046,-0.869451,-0.873783,-0.869245,-0.868536,-0.880980,-0.894189,-0.880694,-0.869646,-0.859300
-0.852129,-0.851635,-0.858670,-0.854158,-0.855980,-0.748473,-0.673785,-0.819002,-0.862809,-0.868281,-0.884143,-0.868826,-0.875095,-0.876253,-0.865309,-0.854231,-0.854078,-0.859602,-0.862981,-0.862561,-0.861970,-0.849027,-0.858428,-0.865473,-0.870936,-0.867384,-0.867430,-0.883516,-0.893249,-0.881406,-0.865802,-0.855502
-0.847134,-0.849816,-0.850659,-0.851010,-0.851443,-0.743510,-0.672145,-0.805227,-0.864175,-0.869663,-0.881585,-0.869358,-0.878680,-0.879910,-0.862956,-0.850803,-0.850895,-0.857613,-0.856128,-0.858227,-0.858683,-0.844963,-0.858688,-0.863171,-0.869373,-0.867464,-0.867587,-0.883227,-0.896667,-0.882408,-0.863528,-0.849327
-0.837233,-0.839772,-0.845656,-0.841092,-0.842442,-0.741699,-0.683761,-0.800665,-0.818855,-0.841984,-0.856090,-0.849165,-0.843514,-0.854430,-0.850697,-0.834328,-0.841370,-0.843615,-0.845115,-0.853097,-0.847487,-0.829019,-0.833920,-0.838470,-0.854403,-0.852440,-0.847676,-0.851636,-0.869110,-0.860237,-0.847305,-0.839366
-0.780837,-0.794717,-0.809787,-0.801351,-0.804300,-0.740781,-0.678844,-0.774790,-0.815607,-0.793073,-0.819155,-0.821070,-0.820421,-0.810322,-0.784601,-0.771299,-0.781103,-0.807073,-0.813163,-0.819839,-0.815472,-0.808101,-0.821788,-0.823017,-0.821093,-0.819705,-0.815864,-0.830028,-0.831138,-0.813843,-0.787798,-0.771845
-0.768779,-0.780812,-0.798325,-0.786063,-0.795401,-0.711751,-0.669364,-0.763375,-0.816292,-0.820765,-0.816186,-0.804193,-0.804298,-0.806535,-0.778495,-0.769566,-0.772464,-0.794448,-0.802555,-0.816008,-0.814965,-0.808677,-0.813060,-0.812984,-0.808856,-0.802914,-0.800222,-0.812887,-0.809980,-0.810876,-0.777835,-0.770077
-0.807933,-0.808323,-0.823470,-0.814608,-0.823635,-0.756934,-0.704362,-0.801292,-0.830817,-0.833943,-0.842289,-0.834982,-0.832922,-0.821329,-0.803359,-0.787669,-0.806448,-0.816471,-0.827205,-0.832671,-0.825602,-0.823417,-0.825669,-0.833088,-0.834771,-0.829049,-0.823034,-0.835855,-0.839459,-0.833701,-0.803946,-0.793362
-0.838196,-0.840973,-0.850155,-0.843782,-0.847548,-0.763827,-0.699841,-0.819077,-0.857903,-0.857038,-0.867203,-0.863998,-0.869760,-0.868391,-0.840656,-0.838336,-0.846273,-0.852672,-0.850673,-0.856026,-0.857241,-0.846053,-0.854792,-0.855385,-0.861115,-0.850059,-0.859361,-0.873281,-0.890261,-0.878063,-0.855232,-0.838174
-0.843135,-0.848108,-0.854265,-0.851449,-0.852536,-0.764531,-0.699973,-0.826399,-0.860889,-0.860338,-0.872676,-0.863447,-0.871363,-0.874070,-0.854668,-0.844705,-0.852414,-0.856301,-0.858311,-0.861179,-0.861916,-0.847534,-0.856514,-0.862334,-0.869857,-0.863724,-0.862207,-0.881832,-0.890912,-0.880785,-0.863434,-0.846962
-0.841188,-0.843923,-0.852362,-0.849278,-0.850549,-0.737267,-0.669883,-0.807046,-0.862343,-0.856357,-0.867695,-0.856079,-0.871749,-0.873757,-0.856783,-0.851679,-0.856839,-0.855440,-0.854312,-0.856472,-0.858954,-0.841034,-0.845016,-0.848593,-0.854144,-0.839663,-0.836063,-0.867009,-0.888833,-0.871729,-0.857883,-0.845590
-0.825209,-0.832375,-0.832867,-0.835210,-0.836941,-0.688215,-0.612511,-0.788671,-0.859012,-0.855363,-0.864913,-0.843349,-0.854913,-0.861714,-0.856442,-0.847172,-0.849435,-0.841864,-0.851814,-0.851439,-0.853644,-0.816881,-0.834723,-0.844267,-0.870544,-0.861996,-0.861344,-0.871489,-0.878113,-0.863761,-0.855329,-0.840256
-0.835255,-0.840944,-0.847686,-0.846974,-0.846448,-0.741131,-0.666561,-0.812433,-0.856286,-0.857890,-0.872924,-0.852435,-0.865873,-0.866735,-0.859802,-0.850413,-0.854513,-0.850160,-0.855693,-0.861208,-0.859975,-0.837780,-0.849195,-0.857841,-0.875396,-0.870616,-0.869484,-0.878501,-0.884754,-0.873424,-0.859293,-0.845968
-0.832511,-0.837850,-0.844182,-0.844390,-0.841342,-0.735887,-0.657884,-0.803038,-0.851682,-0.845548,-0.866883,-0.852884,-0.866075,-0.867413,-0.856756,-0.845867,-0.850268,-0.847881,-0.851889,-0.857067,-0.856629,-0.833347,-0.842542,-0.848007,-0.861860,-0.848664,-0.850342,-0.871040,-0.884672,-0.872041,-0.856065,-0.841370
-0.828849,-0.835465,-0.838845,-0.838253,-0.837451,-0.729285,-0.645418,-0.798997,-0.852950,-0.853703,-0.868404,-0.850207,-0.863458,-0.861999,-0.853814,-0.844088,-0.847853,-0.847240,-0.849848,-0.854992,-0.852987,-0.829513,-0.843301,-0.848352,-0.865652,-0.855055,-0.857686,-0.870672,-0.881033,-0.869349,-0.853283,-0.841592
-0.833574,-0.838642,-0.844588,-0.845391,-0.843723,-0.734306,-0.628149,-0.803867,-0.855765,-0.851442,-0.867777,-0.853637,-0.866259,-0.867754,-0.853399,-0.842898,-0.849459,-0.852218,-0.852909,-0.856742,-0.857781,-0.835664,-0.844174,-0.853515,-0.865649,-0.857805,-0.859108,-0.875259,-0.886825,-0.872950,-0.854790,-0.840787
-0.832477,-0.840201,-0.843617,-0.843881,-0.842998,-0.738264,-0.654749,-0.802560,-0.857891,-0.848211,-0.867202,-0.854750,-0.866484,-0.868616,-0.852185,-0.844913,-0.851868,-0.851432,-0.850101,-0.856684,-0.856244,-0.834474,-0.842878,-0.851659,-0.864490,-0.857373,-0.854535,-0.874831,-0.885120,-0.871887,-0.853835,-0.840289
-0.820459,-0.834701,-0.838756,-0.839000,-0.837788,-0.738051,-0.650283,-0.794629,-0.852217,-0.846307,-0.862389,-0.848961,-0.860696,-0.862822,-0.851486,-0.832296,-0.846571,-0.845983,-0.848624,-0.854970,-0.855149,-0.831333,-0.841296,-0.846313,-0.861847,-0.853060,-0.850313,-0.871707,-0.881858,-0.868641,-0.849049,-0.836217
-0.810198,-0.821111,-0.829226,-0.829671,-0.823983,-0.719960,-0.640663,-0.784460,-0.835554,-0.831329,-0.838105,-0.828057,-0.845577,-0.843083,-0.832283,-0.816814,-0.833914,-0.831972,-0.835671,-0.843450,-0.840636,-0.819186,-0.827661,-0.831677,-0.843313,-0.836917,-0.839236,-0.856778,-0.862887,-0.850330,-0.828322,-0.808907
-0.815627,-0.824373,-0.832471,-0.834270,-0.831766,-0.737958,-0.655155,-0.795367,-0.846575,-0.838066,-0.856448,-0.844208,-0.852012,-0.855456,-0.842954,-0.828516,-0.828932,-0.834730,-0.840276,-0.846081,-0.847038,-0.826275,-0.837991,-0.844982,-0.851806,-0.847692,-0.847305,-0.861904,-0.870836,-0.855824,-0.830982,-0.818774
-0.844870,-0.854765,-0.857964,-0.861752,-0.856489,-0.729032,-0.643185,-0.800405,-0.869820,-0.858397,-0.877009,-0.853564,-0.875128,-0.881258,-0.869787,-0.854461,-0.859673,-0.859228,-0.868662,-0.869861,-0.871358,-0.843745,-0.855709,-0.861486,-0.875181,-0.865447,-0.865980,-0.883731,-0.888555,-0.877576,-0.859507,-0.840162
-0.816277,-0.823759,-0.822844,-0.821443,-0.812625,-0.593413,-0.486329,-0.729443,-0.860201,-0.845545,-0.869788,-0.828587,-0.855573,-0.871879,-0.853892,-0.844029,-0.837979,-0.825093,-0.839297,-0.834787,-0.837669,-0.786578,-0.807076,-0.827800,-0.859065,-0.855652,-0.852383,-0.874716,-0.881043,-0.859829,-0.852210,-0.827039
-0.829334,-0.840683,-0.843562,-0.845570,-0.835089,-0.714204,-0.625148,-0.777918,-0.856949,-0.841314,-0.865881,-0.851006,-0.867742,-0.873219,-0.859355,-0.839757,-0.844518,-0.845391,-0.854482,-0.854307,-0.856201,-0.828140,-0.841312,-0.848286,-0.863234,-0.857173,-0.858965,-0.880490,-0.885032,-0.869979,-0.851600,-0.827178
-0.825359,-0.834382,-0.838240,-0.838938,-0.834608,-0.703796,-0.598541,-0.767494,-0.858268,-0.846860,-0.865492,-0.844881,-0.864586,-0.869693,-0.860035,-0.843455,-0.844416,-0.842012,-0.852320,-0.851488,-0.853350,-0.827380,-0.837459,-0.843701,-0.860522,-0.853383,-0.854979,-0.873616,-0.881288,-0.868432,-0.851097,-0.827334
-0.827291,-0.836506,-0.837703,-0.843492,-0.834745,-0.711284,-0.609755,-0.776054,-0.857481,-0.849125,-0.866364,-0.853439,-0.867047,-0.871560,-0.854927,-0.840964,-0.843873,-0.845058,-0.849340,-0.854549,-0.858561,-0.833421,-0.842853,-0.845434,-0.862138,-0.858327,-0.855746,-0.878185,-0.883329,-0.869023,-0.853230,-0.832476
-0.827155,-0.837503,-0.843564,-0.845145,-0.838775,-0.722883,-0.636223,-0.785688,-0.865552,-0.858240,-0.870661,-0.853968,-0.867502,-0.873984,-0.860745,-0.842123,-0.846849,-0.849020,-0.853238,-0.856754,-0.860063,-0.835749,-0.846582,-0.854653,-0.873904,-0.869265,-0.869056,-0.881969,-0.879270,-0.870886,-0.853275,-0.831497
-0.827916,-0.840482,-0.844746,-0.846433,-0.840627,-0.721909,-0.633131,-0.783437,-0.858653,-0.856099,-0.874168,-0.854059,-0.861909,-0.874747,-0.862844,-0.842468,-0.847183,-0.846491,-0.853787,-0.858066,-0.862636,-0.834684,-0.848556,-0.857791,-0.879740,-0.874291,-0.867613,-0.881029,-0.884215,-0.873675,-0.853633,-0.833821
-0.834009,-0.845949,-0.846317,-0.849033,-0.841770,-0.735048,-0.652776,-0.792145,-0.864901,-0.857312,-0.871895,-0.859601,-0.870175,-0.874876,-0.856043,-0.841993,-0.845037,-0.849790,-0.858102,-0.858160,-0.865921,-0.840963,-0.853735,-0.860044,-0.878261,-0.874055,-0.873238,-0.885595,-0.887925,-0.876098,-0.858280,-0.835037
-0.831959,-0.845307,-0.845230,-0.846926,-0.840361,-0.726918,-0.647985,-0.791938,-0.868024,-0.863026,-0.875292,-0.857897,-0.866031,-0.872455,-0.861176,-0.838884,-0.846234,-0.847544,-0.854784,-0.855401,-0.865611,-0.840370,-0.851293,-0.860038,-0.878954,-0.873912,-0.871922,-0.885025,-0.886884,-0.875148,-0.853717,-0.831219
-0.837313,-0.848977,-0.851327,-0.853640,-0.847224,-0.729887,-0.643838,-0.796165,-0.866020,-0.863869,-0.879425,-0.855691,-0.872730,-0.876780,-0.860751,-0.847173,-0.852486,-0.853596,-0.860370,-0.860921,-0.868401,-0.842678,-0.854245,-0.862044,-0.882678,-0.878260,-0.878093,-0.888690,-0.889446,-0.876779,-0.859594,-0.837619
-0.844780,-0.853789,-0.856845,-0.858809,-0.849941,-0.740515,-0.657053,-0.796043,-0.869364,-0.863192,-0.880526,-0.863156,-0.879275,-0.883033,-0.860691,-0.858736,-0.861190,-0.861533,-0.867602,-0.869328,-0.875858,-0.849386,-0.861167,-0.864216,-0.875572,-0.864005,-0.865269,-0.887670,-0.890695,-0.878328,-0.864149,-0.846859
-0.831145,-0.842781,-0.844797,-0.850075,-0.845370,-0.713372,-0.633963,-0.784256,-0.863073,-0.854838,-0.867959,-0.842086,-0.856924,-0.870110,-0.857077,-0.848142,-0.855922,-0.846391,-0.855013,-0.859144,-0.865415,-0.834992,-0.842187,-0.848864,-0.867422,-0.856925,-0.858857,-0.873303,-0.870285,-0.863656,-0.854373,-0.837814
-0.774829,-0.789677,-0.797510,-0.795900,-0.802699,-0.677111,-0.607636,-0.743839,-0.801324,-0.785185,-0.809421,-0.784505,-0.796489,-0.796142,-0.803012,-0.783937,-0.795965,-0.798895,-0.805076,-0.808180,-0.814527,-0.789229,-0.793836,-0.803182,-0.827501,-0.815036,-0.807848,-0.805344,-0.798950,-0.789913,-0.784340,-0.762911
-0.756207,-0.770098,-0.781769,-0.776652,-0.783427,-0.695192,-0.616369,-0.754163,-0.809660,-0.803428,-0.811317,-0.811562,-0.805220,-0.791853,-0.790856,-0.776592,-0.780920,-0.783056,-0.778920,-0.795814,-0.809521,-0.789499,-0.794362,-0.802661,-0.806929,-0.801988,-0.802717,-0.817060,-0.813955,-0.804833,-0.785226,-0.760411
-0.848873,-0.857728,-0.861541,-0.863908,-0.857378,-0.731015,-0.646349,-0.798910,-0.870285,-0.872564,-0.893811,-0.869689,-0.888275,-0.892678,-0.883548,-0.876246,-0.870368,-0.869106,-0.872008,-0.870105,-0.878411,-0.850494,-0.858009,-0.866027,-0.882865,-0.872628,-0.877120,-0.897352,-0.903898,-0.891247,-0.879295,-0.857266
-0.843710,-0.852769,-0.857776,-0.860516,-0.854461,-0.728409,-0.647203,-0.799953,-0.874105,-0.870187,-0.880527,-0.865475,-0.883567,-0.886815,-0.877875,-0.865695,-0.862962,-0.864783,-0.863545,-0.866038,-0.874445,-0.850278,-0.856107,-0.866620,-0.878815,-0.870349,-0.874228,-0.895533,-0.892398,-0.879961,-0.866646,-0.848193
-0.851672,-0.858923,-0.864591,-0.865423,-0.859118,-0.734139,-0.648557,-0.794929,-0.877680,-0.877022,-0.893610,-0.871881,-0.890101,-0.892344,-0.887291,-0.874068,-0.870046,-0.869971,-0.875103,-0.873650,-0.882946,-0.855198,-0.861780,-0.869790,-0.883792,-0.873566,-0.876617,-0.898804,-0.902491,-0.889063,-0.877233,-0.858455
-0.856099,-0.862980,-0.865590,-0.868199,-0.862270,-0.737395,-0.649368,-0.799008,-0.874941,-0.873976,-0.894029,-0.873335,-0.891982,-0.894110,-0.884795,-0.875481,-0.873682,-0.871834,-0.876525,-0.874784,-0.883904,-0.856298,-0.862072,-0.870794,-0.884367,-0.875161,-0.878256,-0.900193,-0.903421,-0.891008,-0.879113,-0.860411
-0.847034,-0.860393,-0.860505,-0.863768,-0.859563,-0.741455,-0.654663,-0.805836,-0.857536,-0.857311,-0.876858,-0.872445,-0.876909,-0.873160,-0.851205,-0.831775,-0.828918,-0.856738,-0.864568,-0.863440,-0.867572,-0.852221,-0.856006,-0.867278,-0.872940,-0.868666,-0.868987,-0.887988,-0.899687,-0.878509,-0.849792,-0.817046
-0.799985,-0.806978,-0.809698,-0.818172,-0.802038,-0.605251,-0.481585,-0.715998,-0.834409,-0.838483,-0.867008,-0.824669,-0.844655,-0.866826,-0.863571,-0.846261,-0.834817,-0.828675,-0.834561,-0.833188,-0.840249,-0.785988,-0.795624,-0.814237,-0.853405,-0.843301,-0.843301,-0.864125,-0.880246,-0.857979,-0.845260,-0.833213
-0.852623,-0.862172,-0.863639,-0.862917,-0.862796,-0.755184,-0.683003,-0.807269,-0.868914,-0.868776,-0.887762,-0.877106,-0.889095,-0.890948,-0.873597,-0.858832,-0.861432,-0.867230,-0.866319,-0.868233,-0.874568,-0.859214,-0.865708,-0.872370,-0.882873,-0.872916,-0.878270,-0.900058,-0.908233,-0.892588,-0.871924,-0.849996
-0.859518,-0.867562,-0.869220,-0.869118,-0.868908,-0.757142,-0.678759,-0.812654,-0.874837,-0.875782,-0.894168,-0.878380,-0.890737,-0.893587,-0.878146,-0.862310,-0.866516,-0.872169,-0.872799,-0.870138,-0.879734,-0.865092,-0.873505,-0.880423,-0.890929,-0.882002,-0.884581,-0.902609,-0.910027,-0.892959,-0.876815,-0.853668
-0.857156,-0.867897,-0.871220,-0.868620,-0.870082,-0.765201,-0.703048,-0.816999,-0.876951,-0.877979,-0.893650,-0.875503,-0.886000,-0.890040,-0.867249,-0.857619,-0.862356,-0.867008,-0.870869,-0.874482,-0.877338,-0.868682,-0.876570,-0.883425,-0.895300,-0.889895,-0.895889,-0.906103,-0.903962,-0.890232,-0.872402,-0.850609
-0.864604,-0.873017,-0.873636,-0.873709,-0.872731,-0.767251,-0.707870,-0.815650,-0.878188,-0.881275,-0.896093,-0.884494,-0.889244,-0.892637,-0.878294,-0.860931,-0.869379,-0.873119,-0.875909,-0.875974,-0.881878,-0.872247,-0.881581,-0.885822,-0.900451,-0.894293,-0.899073,-0.908660,-0.905509,-0.897595,-0.877757,-0.853181
-0.864051,-0.874460,-0.872928,-0.874220,-0.875868,-0.769891,-0.701499,-0.827444,-0.879023,-0.881226,-0.897876,-0.887334,-0.894359,-0.896943,-0.874654,-0.861790,-0.872059,-0.877594,-0.876487,-0.878345,-0.886152,-0.874040,-0.882143,-0.889401,-0.898875,-0.894929,-0.899417,-0.911697,-0.912426,-0.900279,-0.881983,-0.857773
-0.834308,-0.857775,-0.860156,-0.861573,-0.868031,-0.773957,-0.704297,-0.827565,-0.861784,-0.859684,-0.881973,-0.880438,-0.875286,-0.869868,-0.844227,-0.820754,-0.844086,-0.857488,-0.854079,-0.865194,-0.876299,-0.866183,-0.871548,-0.879791,-0.882232,-0.872702,-0.875121,-0.891549,-0.886114,-0.881703,-0.847472,-0.818673
-0.870926,-0.883346,-0.880385,-0.878629,-0.879561,-0.779724,-0.711736,-0.833826,-0.878248,-0.878862,-0.896807,-0.894458,-0.899545,-0.893072,-0.867678,-0.870075,-0.873016,-0.885763,-0.882903,-0.885508,-0.890213,-0.879489,-0.883575,-0.892483,-0.897983,-0.892908,-0.894331,-0.916550,-0.912443,-0.907316,-0.885771,-0.865957
-0.871708,-0.880047,-0.878526,-0.876819,-0.877621,-0.777175,-0.706280,-0.833291,-0.875247,-0.880747,-0.897601,-0.881907,-0.900609,-0.895402,-0.872930,-0.868720,-0.875858,-0.885133,-0.880986,-0.883157,-0.887739,-0.876186,-0.882016,-0.890500,-0.895415,-0.892574,-0.895966,-0.911963,-0.916658,-0.907581,-0.886744,-0.869449
-0.872403,-0.881275,-0.877900,-0.875116,-0.876535,-0.768923,-0.704252,-0.832903,-0.869936,-0.874638,-0.896381,-0.884136,-0.898635,-0.894424,-0.870433,-0.870458,-0.875806,-0.881396,-0.881709,-0.881158,-0.885949,-0.873816,-0.877643,-0.887313,-0.894977,-0.889327,-0.893856,-0.910839,-0.916101,-0.907301,-0.887782,-0.868491
-0.815856,-0.830559,-0.837324,-0.827043,-0.816034,-0.586621,-0.466320,-0.731409,-0.865841,-0.861553,-0.883688,-0.825353,-0.865308,-0.873245,-0.872498,-0.865200,-0.853177,-0.838719,-0.842227,-0.835789,-0.849817,-0.797307,-0.807103,-0.835895,-0.872650,-0.864909,-0.863299,-0.882773,-0.880999,-0.863164,-0.859186,-0.847400
-0.876841,-0.883782,-0.880920,-0.879310,-0.884490,-0.805876,-0.758790,-0.856176,-0.866693,-0.871303,-0.892723,-0.885168,-0.895237,-0.890410,-0.873390,-0.870988,-0.877055,-0.884867,-0.877384,-0.884491,-0.886527,-0.880382,-0.884413,-0.890688,-0.890431,-0.884244,-0.888885,-0.902311,-0.908714,-0.901814,-0.886833,-0.868163
-0.875488,-0.878745,-0.876063,-0.875006,-0.878505,-0.799112,-0.750050,-0.851743,-0.866143,-0.869571,-0.885946,-0.878512,-0.889583,-0.886269,-0.868881,-0.868626,-0.873679,-0.876915,-0.869584,-0.872374,-0.873298,-0.869985,-0.874599,-0.883948,-0.885645,-0.879938,-0.883867,-0.895708,-0.903849,-0.893310,-0.879021,-0.857292
-0.875088,-0.883769,-0.880638,-0.879476,-0.881042,-0.803431,-0.752466,-0.845556,-0.865523,-0.866458,-0.886031,-0.880278,-0.892561,-0.886477,-0.871453,-0.867961,-0.870398,-0.881459,-0.876131,-0.882496,-0.883029,-0.877025,-0.879780,-0.887396,-0.887805,-0.881391,-0.883932,-0.897730,-0.906601,-0.899538,-0.878632,-0.861402
-0.874588,-0.882395,-0.881165,-0.877678,-0.879249,-0.806202,-0.750965,-0.845384,-0.861811,-0.871419,-0.879992,-0.881783,-0.890264,-0.885872,-0.866411,-0.866825,-0.872426,-0.879630,-0.878189,-0.882601,-0.882968,-0.875277,-0.882784,-0.884418,-0.887710,-0.877686,-0.882964,-0.897048,-0.906021,-0.898415,-0.878909,-0.863847
-0.876311,-0.881807,-0.880297,-0.874969,-0.879587,-0.802917,-0.756263,-0.849064,-0.869790,-0.873090,-0.886008,-0.884159,-0.891219,-0.886152,-0.869472,-0.865115,-0.869669,-0.879937,-0.874546,-0.881113,-0.881178,-0.875090,-0.883058,-0.886216,-0.887890,-0.880627,-0.883931,-0.896227,-0.905619,-0.894993,-0.879531,-0.864594
-0.865546,-0.877506,-0.876157,-0.876847,-0.878888,-0.811626,-0.764720,-0.849304,-0.862013,-0.870946,-0.878419,-0.882595,-0.885184,-0.881682,-0.868391,-0.860884,-0.864604,-0.874924,-0.867851,-0.881505,-0.880948,-0.879849,-0.884457,-0.890422,-0.887652,-0.877208,-0.883636,-0.893663,-0.899610,-0.894967,-0.871076,-0.855672
-0.863473,-0.873417,-0.866239,-0.862738,-0.867181,-0.788813,-0.725992,-0.839022,-0.861270,-0.865365,-0.878633,-0.874119,-0.890890,-0.881588,-0.854738,-0.848653,-0.860842,-0.871595,-0.868178,-0.870504,-0.872555,-0.863544,-0.870021,-0.880019,-0.884950,-0.877301,-0.880896,-0.899279,-0.905307,-0.896231,-0.873861,-0.851005
-0.591834,-0.488514,-0.430693,-0.568525,-0.660279,-0.638421,-0.572463,-0.652835,-0.655582,-0.653034,-0.668215,-0.656303,-0.663741,-0.663980,-0.645863,-0.636683,-0.638208,-0.599570,-0.559165,-0.614626,-0.688505,-0.694567,-0.699595,-0.704449,-0.688759,-0.678119,-0.660921,-0.654290,-0.654045,-0.670708,-0.662140,-0.645076
-0.646023,-0.582083,-0.467913,-0.621116,-0.679151,-0.654054,-0.608146,-0.678652,-0.679702,-0.683656,-0.691056,-0.680555,-0.686702,-0.690139,-0.679546,-0.666523,-0.676625,-0.664381,-0.629437,-0.648846,-0.704741,-0.705140,-0.718333,-0.725834,-0.714028,-0.702913,-0.679008,-0.670729,-0.675125,-0.694162,-0.682795,-0.665032
-0.643185,-0.585683,-0.460506,-0.615550,-0.674400,-0.653009,-0.601429,-0.678799,-0.677150,-0.679533,-0.682649,-0.665943,-0.676391,-0.680789,-0.672640,-0.659214,-0.675818,-0.654797,-0.621646,-0.642628,-0.701620,-0.702780,-0.712775,-0.722766,-0.712448,-0.700709,-0.676790,-0.665090,-0.662061,-0.682569,-0.670908,-0.652598
-0.605151,-0.559909,-0.460136,-0.579195,-0.628862,-0.608416,-0.563501,-0.643965,-0.638940,-0.632963,-0.633837,-0.627228,-0.634604,-0.637149,-0.622144,-0.617898,-0.625756,-0.608014,-0.576183,-0.585558,-0.647478,-0.649733,-0.661513,-0.673417,-0.665226,-0.657128,-0.637696,-0.630818,-0.623608,-0.629445,-0.620436,-0.594602
-0.577276,-0.457379,-0.399432,-0.574615,-0.642419,-0.612600,-0.570654,-0.635947,-0.643872,-0.649607,-0.648239,-0.641957,-0.641513,-0.639417,-0.631616,-0.616080,-0.628671,-0.578178,-0.547366,-0.595943,-0.665523,-0.669332,-0.676673,-0.685780,-0.677914,-0.669812,-0.649119,-0.637112,-0.631750,-0.645879,-0.629243,-0.608737
-0.505243,-0.394291,-0.350571,-0.468328,-0.542361,-0.543625,-0.511367,-0.578364,-0.561539,-0.565405,-0.572175,-0.562356,-0.563211,-0.566770,-0.548630,-0.544564,-0.544611,-0.498213,-0.469553,-0.524611,-0.567126,-0.573872,-0.591235,-0.613925,-0.603449,-0.591920,-0.584736,-0.574326,-0.571180,-0.578812,-0.547282,-0.527984
-0.581681,-0.470919,-0.430982,-0.603968,-0.666613,-0.602656,-0.528974,-0.640276,-0.675464,-0.668184,-0.660758,-0.663871,-0.663673,-0.665461,-0.652093,-0.640616,-0.638806,-0.581318,-0.548022,-0.614222,-0.694423,-0.696929,-0.703734,-0.709952,-0.699720,-0.691820,-0.660611,-0.657047,-0.656732,-0.666149,-0.659654,-0.643570
-0.587610,-0.478696,-0.438612,-0.611117,-0.674726,-0.607622,-0.539397,-0.638990,-0.688112,-0.680885,-0.681790,-0.670658,-0.677227,-0.673313,-0.658933,-0.643397,-0.650181,-0.594568,-0.569582,-0.626048,-0.704327,-0.702130,-0.712207,-0.707787,-0.701117,-0.685410,-0.652754,-0.639403,-0.633184,-0.668594,-0.663998,-0.647719
-0.587715,-0.480916,-0.433019,-0.583819,-0.669101,-0.614896,-0.566535,-0.663079,-0.697424,-0.691313,-0.696450,-0.690906,-0.688813,-0.683807,-0.665768,-0.644752,-0.648164,-0.592644,-0.564759,-0.602146,-0.695198,-0.708160,-0.718221,-0.718572,-0.711660,-0.704260,-0.684662,-0.684161,-0.678913,-0.697214,-0.670776,-0.649912
-0.590656,-0.480064,-0.404442,-0.597732,-0.671461,-0.621626,-0.567356,-0.661879,-0.694019,-0.689553,-0.694669,-0.690225,-0.687966,-0.684755,-0.666679,-0.647813,-0.652418,-0.594958,-0.559176,-0.609274,-0.701728,-0.705081,-0.716561,-0.715404,-0.710016,-0.706703,-0.688629,-0.687991,-0.683832,-0.695991,-0.672765,-0.653155
-0.587664,-0.479750,-0.418511,-0.594595,-0.669175,-0.627077,-0.572089,-0.662432,-0.691930,-0.688581,-0.693442,-0.689223,-0.685385,-0.681985,-0.663581,-0.642745,-0.648830,-0.591504,-0.564144,-0.603801,-0.693336,-0.700429,-0.708932,-0.713984,-0.707684,-0.704138,-0.687857,-0.687888,-0.682439,-0.693742,-0.669962,-0.647850
-0.578899,-0.468166,-0.413337,-0.582456,-0.661861,-0.632582,-0.581755,-0.661060,-0.685840,-0.680644,-0.679804,-0.683157,-0.675131,-0.673212,-0.654025,-0.634693,-0.638337,-0.583551,-0.552797,-0.604494,-0.691834,-0.700328,-0.707425,-0.710680,-0.701285,-0.698717,-0.677195,-0.679185,-0.674576,-0.687452,-0.664043,-0.647084
-0.585823,-0.477316,-0.414349,-0.585159,-0.664168,-0.626957,-0.579595,-0.660936,-0.688266,-0.678893,-0.672351,-0.667668,-0.666137,-0.668754,-0.656309,-0.640948,-0.647392,-0.589835,-0.560070,-0.598254,-0.693354,-0.701032,-0.706450,-0.711571,-0.702542,-0.696101,-0.676397,-0.676198,-0.667658,-0.680057,-0.667751,-0.650011
-0.588172,-0.474478,-0.415640,-0.589234,-0.663937,-0.632179,-0.583063,-0.662142,-0.695847,-0.686208,-0.685703,-0.684751,-0.679591,-0.677336,-0.656840,-0.640100,-0.648926,-0.585680,-0.555113,-0.592737,-0.692988,-0.702816,-0.709234,-0.714397,-0.708547,-0.703063,-0.683298,-0.683201,-0.677729,-0.691532,-0.667917,-0.649890
-0.586960,-0.480768,-0.442468,-0.595201,-0.654560,-0.600536,-0.541888,-0.638160,-0.682483,-0.671917,-0.671201,-0.674769,-0.680557,-0.676605,-0.660226,-0.641641,-0.649436,-0.592902,-0.565648,-0.604779,-0.684066,-0.693831,-0.703044,-0.704799,-0.696159,-0.680146,-0.660806,-0.672734,-0.678666,-0.691112,-0.667791,-0.648675
-0.568945,-0.449987,-0.396158,-0.557779,-0.650670,-0.624366,-0.577674,-0.654657,-0.681021,-0.677234,-0.683808,-0.686452,-0.670228,-0.665792,-0.648013,-0.620774,-0.630739,-0.578673,-0.527311,-0.568110,-0.684865,-0.696770,-0.704022,-0.707724,-0.692387,-0.688567,-0.676596,-0.680939,-0.665219,-0.677631,-0.646155,-0.622396
-0.618165,-0.554429,-0.473245,-0.600100,-0.662190,-0.609675,-0.566172,-0.647490,-0.686942,-0.681722,-0.689634,-0.683492,-0.676908,-0.682003,-0.665333,-0.646485,-0.664048,-0.626932,-0.598168,-0.610167,-0.685750,-0.696507,-0.702121,-0.708409,-0.699394,-0.698073,-0.679352,-0.684853,-0.677338,-0.697645,-0.677346,-0.654096
-0.606678,-0.551451,-0.461534,-0.544617,-0.633367,-0.587399,-0.537853,-0.651239,-0.679946,-0.673515,-0.683209,-0.676502,-0.675343,-0.670504,-0.656453,-0.639765,-0.647294,-0.616034,-0.592115,-0.534703,-0.657068,-0.671798,-0.691602,-0.699519,-0.690424,-0.691543,-0.674888,-0.680423,-0.665749,-0.677734,-0.661683,-0.638625
-0.586017,-0.443422,-0.432692,-0.594139,-0.663377,-0.619702,-0.575888,-0.673405,-0.719072,-0.712706,-0.714975,-0.711539,-0.711937,-0.709171,-0.693676,-0.676924,-0.650504,-0.559911,-0.525425,-0.565815,-0.675143,-0.700797,-0.725805,-0.732149,-0.716620,-0.715584,-0.700629,-0.701283,-0.688550,-0.708174,-0.698623,-0.678073
-0.602723,-0.460566,-0.425343,-0.593942,-0.669348,-0.632115,-0.580752,-0.684014,-0.717612,-0.710049,-0.714161,-0.711151,-0.713337,-0.709301,-0.697586,-0.683100,-0.667897,-0.583824,-0.544108,-0.585895,-0.690409,-0.711511,-0.725200,-0.736157,-0.723423,-0.715049,-0.701130,-0.704055,-0.690608,-0.716906,-0.708622,-0.686020
-0.586763,-0.460204,-0.416450,-0.568229,-0.632160,-0.621984,-0.576868,-0.666293,-0.682076,-0.674659,-0.673025,-0.682118,-0.682403,-0.673936,-0.645315,-0.648138,-0.648012,-0.576543,-0.521034,-0.550348,-0.657112,-0.688724,-0.698480,-0.701732,-0.691595,-0.679969,-0.654505,-0.645291,-0.626335,-0.672510,-0.675858,-0.655143
-0.616238,-0.485785,-0.465479,-0.591010,-0.676205,-0.633356,-0.591244,-0.689550,-0.723863,-0.720502,-0.727050,-0.722444,-0.724156,-0.721980,-0.709303,-0.689205,-0.676278,-0.601530,-0.562013,-0.585388,-0.691654,-0.715954,-0.732517,-0.738017,-0.728343,-0.723053,-0.713498,-0.711429,-0.703688,-0.727917,-0.717375,-0.695560
-0.605425,-0.476767,-0.455760,-0.595805,-0.660143,-0.584435,-0.499419,-0.672275,-0.721807,-0.712932,-0.720381,-0.690914,-0.703115,-0.708168,-0.707124,-0.687898,-0.671856,-0.590975,-0.556465,-0.588163,-0.687809,-0.701119,-0.718362,-0.732451,-0.728357,-0.718920,-0.703684,-0.693734,-0.681420,-0.707976,-0.708272,-0.690692
-0.616712,-0.487499,-0.466732,-0.600892,-0.676920,-0.651788,-0.621658,-0.691808,-0.720722,-0.721670,-0.726194,-0.729304,-0.731501,-0.725198,-0.711497,-0.689750,-0.673874,-0.601274,-0.557036,-0.593184,-0.695862,-0.719100,-0.732256,-0.735468,-0.721508,-0.708657,-0.699623,-0.708690,-0.707245,-0.728508,-0.714896,-0.690730
-0.622176,-0.490978,-0.476228,-0.616446,-0.678657,-0.662006,-0.629518,-0.698546,-0.732412,-0.729041,-0.731642,-0.728854,-0.727733,-0.723452,-0.712151,-0.695680,-0.679751,-0.607131,-0.576471,-0.612611,-0.697881,-0.724862,-0.740859,-0.745807,-0.739157,-0.729502,-0.719392,-0.710916,-0.701244,-0.727347,-0.718521,-0.696469
-0.618237,-0.485600,-0.473260,-0.614083,-0.680489,-0.652686,-0.617814,-0.692613,-0.726815,-0.728763,-0.731102,-0.730729,-0.729187,-0.724816,-0.706914,-0.694166,-0.674706,-0.600198,-0.567641,-0.609833,-0.695481,-0.717919,-0.736302,-0.740646,-0.733651,-0.725286,-0.717470,-0.714318,-0.707293,-0.730832,-0.716338,-0.693835
