0,1,2,3,4,5,6,7,8,9,10,11,12,13,14,15,16,17,18,19,20,21,22,23,24,25,26,27,28,29,30,31
-0.913224,-0.926318,-0.928489,-0.930771,-0.921459,-0.784101,-0.699358,-0.856226,-0.923385,-0.928600,-0.939937,-0.908853,-0.931057,-0.940541,-0.940000,-0.940516,-0.936966,-0.923978,-0.940932,-0.941639,-0.943974,-0.912132,-0.921004,-0.931406,-0.950572,-0.950999,-0.941355,-0.938183,-0.935022,-0.933630,-0.933354,-0.924651
-0.909028,-0.923358,-0.925393,-0.928037,-0.919355,-0.782757,-0.706458,-0.858458,-0.921029,-0.923953,-0.932553,-0.909681,-0.921384,-0.933480,-0.934803,-0.935220,-0.931848,-0.918929,-0.938749,-0.935588,-0.938583,-0.907507,-0.915716,-0.928363,-0.943033,-0.942016,-0.938408,-0.932753,-0.923830,-0.926733,-0.925055,-0.916838
-0.911560,-0.918016,-0.921233,-0.920602,-0.912680,-0.776461,-0.709506,-0.853216,-0.908342,-0.906183,-0.924566,-0.899331,-0.917507,-0.923301,-0.930173,-0.927327,-0.931178,-0.914053,-0.930821,-0.927285,-0.924457,-0.899481,-0.899585,-0.920162,-0.935468,-0.932052,-0.927406,-0.923688,-0.928769,-0.924701,-0.925534,-0.914613
-0.896823,-0.907425,-0.903758,-0.906977,-0.900258,-0.709180,-0.593547,-0.828758,-0.921492,-0.923410,-0.928563,-0.885178,-0.913367,-0.924146,-0.933881,-0.935278,-0.931219,-0.905436,-0.931417,-0.923420,-0.928064,-0.872632,-0.895738,-0.916313,-0.938397,-0.939144,-0.933289,-0.922682,-0.921926,-0.918982,-0.921868,-0.914117
-0.917069,-0.925094,-0.928855,-0.927484,-0.917674,-0.770630,-0.692628,-0.853982,-0.926158,-0.934608,-0.941142,-0.903167,-0.925136,-0.937037,-0.936084,-0.942785,-0.940041,-0.923560,-0.937284,-0.941117,-0.942464,-0.903312,-0.915574,-0.925152,-0.949575,-0.945725,-0.940568,-0.938988,-0.935535,-0.935358,-0.929203,-0.929263
-0.921812,-0.924908,-0.932864,-0.935018,-0.922978,-0.793229,-0.714353,-0.862916,-0.929366,-0.936206,-0.944692,-0.913411,-0.934422,-0.939021,-0.940535,-0.946405,-0.943993,-0.932136,-0.946899,-0.946497,-0.947048,-0.918022,-0.925901,-0.932132,-0.949197,-0.946352,-0.945707,-0.945012,-0.941835,-0.940137,-0.938423,-0.937072
-0.921340,-0.928266,-0.933277,-0.937167,-0.930243,-0.797476,-0.724490,-0.858609,-0.921600,-0.933655,-0.940142,-0.917398,-0.929829,-0.942680,-0.935858,-0.941524,-0.944395,-0.932105,-0.938532,-0.949509,-0.951309,-0.922749,-0.928925,-0.939287,-0.952553,-0.947003,-0.945290,-0.945318,-0.938972,-0.937395,-0.935998,-0.938599
-0.930810,-0.934383,-0.937023,-0.937642,-0.933111,-0.797734,-0.725017,-0.861795,-0.928250,-0.936928,-0.949314,-0.915831,-0.932851,-0.944532,-0.943245,-0.948043,-0.947645,-0.935739,-0.947832,-0.951210,-0.952164,-0.919932,-0.932508,-0.941166,-0.960295,-0.956763,-0.952380,-0.948848,-0.947972,-0.943296,-0.941590,-0.937713
-0.930477,-0.935249,-0.937677,-0.938704,-0.932631,-0.780453,-0.694683,-0.858872,-0.925977,-0.935748,-0.947688,-0.913570,-0.932697,-0.943120,-0.943293,-0.949248,-0.946330,-0.935276,-0.948643,-0.950621,-0.950905,-0.919503,-0.931296,-0.940385,-0.959537,-0.955780,-0.950179,-0.949142,-0.946866,-0.943411,-0.941708,-0.939559
-0.926411,-0.930536,-0.933741,-0.936433,-0.928881,-0.790892,-0.710384,-0.862765,-0.919012,-0.930286,-0.944180,-0.902409,-0.931371,-0.940785,-0.942034,-0.949880,-0.943122,-0.934992,-0.948131,-0.946995,-0.948247,-0.918437,-0.930413,-0.938522,-0.954219,-0.953502,-0.949754,-0.946331,-0.943729,-0.941444,-0.939247,-0.932302
-0.927794,-0.931736,-0.933759,-0.937700,-0.931630,-0.792831,-0.715515,-0.863536,-0.928218,-0.933891,-0.945845,-0.909063,-0.930445,-0.942250,-0.944845,-0.948694,-0.945751,-0.932477,-0.945948,-0.948123,-0.948299,-0.916428,-0.927872,-0.938486,-0.956984,-0.953784,-0.948854,-0.947321,-0.945513,-0.940136,-0.940153,-0.935481
-0.919196,-0.922485,-0.927451,-0.928741,-0.925436,-0.783710,-0.699094,-0.854689,-0.923170,-0.925270,-0.943895,-0.899770,-0.922606,-0.934573,-0.936865,-0.945100,-0.935576,-0.925744,-0.939802,-0.942702,-0.943666,-0.910512,-0.921275,-0.930121,-0.946889,-0.948147,-0.942399,-0.941539,-0.942133,-0.933732,-0.932893,-0.932125
-0.918627,-0.926130,-0.927603,-0.929742,-0.923413,-0.770616,-0.676091,-0.845419,-0.926934,-0.930514,-0.941616,-0.907376,-0.926801,-0.934847,-0.941853,-0.943048,-0.936219,-0.927059,-0.937595,-0.946639,-0.944488,-0.906545,-0.920288,-0.929793,-0.948157,-0.946730,-0.942650,-0.943738,-0.934337,-0.936141,-0.934999,-0.933821
-0.919926,-0.924365,-0.923697,-0.924446,-0.923683,-0.773869,-0.685873,-0.842773,-0.923287,-0.925817,-0.938474,-0.906618,-0.924206,-0.935660,-0.934226,-0.939770,-0.938776,-0.923760,-0.938030,-0.943701,-0.938488,-0.910361,-0.919735,-0.930573,-0.949679,-0.947892,-0.937328,-0.938818,-0.936144,-0.940347,-0.934958,-0.930224
-0.908784,-0.916674,-0.921628,-0.919391,-0.913885,-0.770467,-0.677939,-0.841415,-0.913311,-0.917737,-0.936930,-0.895370,-0.922046,-0.929667,-0.921888,-0.925772,-0.925892,-0.923088,-0.932110,-0.936920,-0.936907,-0.905039,-0.915481,-0.928010,-0.941420,-0.936044,-0.930986,-0.932479,-0.934917,-0.931072,-0.928559,-0.919152
-0.897694,-0.903361,-0.907304,-0.907371,-0.908057,-0.774550,-0.684713,-0.829345,-0.892316,-0.902706,-0.910624,-0.885060,-0.903915,-0.905454,-0.904555,-0.900839,-0.914055,-0.903208,-0.917724,-0.923758,-0.915511,-0.899679,-0.903402,-0.912625,-0.922165,-0.914942,-0.918017,-0.915424,-0.910965,-0.912610,-0.902894,-0.903947
-0.899246,-0.903396,-0.906905,-0.909525,-0.908016,-0.768562,-0.687136,-0.831773,-0.899406,-0.912172,-0.910197,-0.891534,-0.903625,-0.910120,-0.899559,-0.907390,-0.912257,-0.900305,-0.917966,-0.912099,-0.920201,-0.894371,-0.903318,-0.912129,-0.921745,-0.920290,-0.918347,-0.913417,-0.911678,-0.903987,-0.898339,-0.899428
-0.926042,-0.929238,-0.933015,-0.934994,-0.932358,-0.799819,-0.717083,-0.856476,-0.932586,-0.938086,-0.946312,-0.911189,-0.928298,-0.935856,-0.938979,-0.938872,-0.941068,-0.931537,-0.945133,-0.945044,-0.941589,-0.914556,-0.926932,-0.937885,-0.950696,-0.948178,-0.945279,-0.942907,-0.940129,-0.938159,-0.928493,-0.928977
-0.927522,-0.928158,-0.930515,-0.932131,-0.928072,-0.790500,-0.707717,-0.849764,-0.932991,-0.938858,-0.946108,-0.907136,-0.928476,-0.932828,-0.939112,-0.939578,-0.940168,-0.927718,-0.943409,-0.942365,-0.938407,-0.914485,-0.922023,-0.933280,-0.951316,-0.945886,-0.945721,-0.941801,-0.937453,-0.936522,-0.929600,-0.930916
-0.928941,-0.929121,-0.932748,-0.934241,-0.929786,-0.792573,-0.713330,-0.854556,-0.928025,-0.936038,-0.946428,-0.907379,-0.929724,-0.937239,-0.942066,-0.942407,-0.943953,-0.931553,-0.943441,-0.945788,-0.940867,-0.917911,-0.926578,-0.935890,-0.956501,-0.951221,-0.946062,-0.943933,-0.943872,-0.937938,-0.932758,-0.929839
-0.924147,-0.925421,-0.928059,-0.930611,-0.926241,-0.785382,-0.705527,-0.849547,-0.933462,-0.934181,-0.944936,-0.905338,-0.928206,-0.933235,-0.938998,-0.936610,-0.938303,-0.924814,-0.939543,-0.941391,-0.936636,-0.910376,-0.919839,-0.930502,-0.951179,-0.948662,-0.944920,-0.941194,-0.940140,-0.935027,-0.926899,-0.926938
-0.920292,-0.914990,-0.917408,-0.926387,-0.921330,-0.778672,-0.691400,-0.846833,-0.925106,-0.927523,-0.940755,-0.903712,-0.917072,-0.926538,-0.935704,-0.934220,-0.931985,-0.920439,-0.933583,-0.936152,-0.931101,-0.905648,-0.912701,-0.929353,-0.949901,-0.947353,-0.942661,-0.937022,-0.932713,-0.930327,-0.924574,-0.927042
-0.910583,-0.914670,-0.918559,-0.919711,-0.910254,-0.774582,-0.683497,-0.834302,-0.922958,-0.923884,-0.935024,-0.898177,-0.916729,-0.921528,-0.934856,-0.928453,-0.929781,-0.916503,-0.930356,-0.934576,-0.928453,-0.907252,-0.909793,-0.921318,-0.945205,-0.942365,-0.936732,-0.930638,-0.927666,-0.927002,-0.917838,-0.919480
-0.904201,-0.911098,-0.915811,-0.920372,-0.914656,-0.779691,-0.692270,-0.844495,-0.925817,-0.922999,-0.932466,-0.900731,-0.915351,-0.926673,-0.928577,-0.926608,-0.926544,-0.914250,-0.930339,-0.934936,-0.928252,-0.904496,-0.906569,-0.918383,-0.943325,-0.938463,-0.935143,-0.935623,-0.931233,-0.927170,-0.914007,-0.924128
-0.910146,-0.914454,-0.916667,-0.921981,-0.917662,-0.790965,-0.706018,-0.851586,-0.909922,-0.918804,-0.928952,-0.901894,-0.919831,-0.927313,-0.933245,-0.928865,-0.928999,-0.917360,-0.931730,-0.939946,-0.932369,-0.905644,-0.911770,-0.924457,-0.942216,-0.937592,-0.936078,-0.934604,-0.939248,-0.923574,-0.922220,-0.924599
-0.915757,-0.917248,-0.922305,-0.925922,-0.919989,-0.781708,-0.686347,-0.850803,-0.930934,-0.928766,-0.940101,-0.901347,-0.925195,-0.932282,-0.939653,-0.932630,-0.934025,-0.924845,-0.934009,-0.940916,-0.933480,-0.906905,-0.912767,-0.925534,-0.946298,-0.945677,-0.939893,-0.936633,-0.941088,-0.929658,-0.924666,-0.923437
-0.920395,-0.921679,-0.925239,-0.927310,-0.925831,-0.786271,-0.697899,-0.851293,-0.937293,-0.935310,-0.943176,-0.909975,-0.921973,-0.932041,-0.939588,-0.938098,-0.935268,-0.919690,-0.938945,-0.943305,-0.933284,-0.908240,-0.915163,-0.927085,-0.949629,-0.948430,-0.943318,-0.939470,-0.940498,-0.931771,-0.927929,-0.928869
-0.923140,-0.925010,-0.929492,-0.933275,-0.929421,-0.797010,-0.706306,-0.859407,-0.930298,-0.934133,-0.939514,-0.908824,-0.928831,-0.934209,-0.939341,-0.932623,-0.934724,-0.926965,-0.938637,-0.943976,-0.936602,-0.914505,-0.918500,-0.934807,-0.949380,-0.945687,-0.945265,-0.939251,-0.939725,-0.931587,-0.926932,-0.927117
-0.913916,-0.914889,-0.922390,-0.925860,-0.923327,-0.805734,-0.724806,-0.853902,-0.925082,-0.927444,-0.934524,-0.912891,-0.922947,-0.927873,-0.929261,-0.923926,-0.927963,-0.921060,-0.927912,-0.942324,-0.932306,-0.913400,-0.916727,-0.927635,-0.935612,-0.941113,-0.937108,-0.933587,-0.932201,-0.929442,-0.913948,-0.919751
-0.898280,-0.901186,-0.904551,-0.913702,-0.910469,-0.778034,-0.687231,-0.831971,-0.930205,-0.927235,-0.936333,-0.903774,-0.924612,-0.922170,-0.928505,-0.921571,-0.925952,-0.910431,-0.923855,-0.932776,-0.926851,-0.905987,-0.902811,-0.920820,-0.939881,-0.938995,-0.927428,-0.927845,-0.926189,-0.915439,-0.914704,-0.916268
-0.905941,-0.903079,-0.911976,-0.921149,-0.916892,-0.782769,-0.689484,-0.847292,-0.924818,-0.932596,-0.935348,-0.901762,-0.919971,-0.925929,-0.925527,-0.928732,-0.917789,-0.907369,-0.924437,-0.924825,-0.924265,-0.898440,-0.902526,-0.917778,-0.941508,-0.939683,-0.937484,-0.930201,-0.923411,-0.921343,-0.915062,-0.914644
-0.908192,-0.911472,-0.918908,-0.923381,-0.914122,-0.774320,-0.689561,-0.833243,-0.920848,-0.926019,-0.936395,-0.892090,-0.922087,-0.924744,-0.930098,-0.934286,-0.927382,-0.913936,-0.929024,-0.930133,-0.933271,-0.906562,-0.903634,-0.915577,-0.942810,-0.947271,-0.944672,-0.933546,-0.929158,-0.924049,-0.920166,-0.922879
-0.909744,-0.914000,-0.922001,-0.926979,-0.921001,-0.795129,-0.706163,-0.847792,-0.933419,-0.934771,-0.939860,-0.913822,-0.931289,-0.931090,-0.930097,-0.933673,-0.929678,-0.921876,-0.928660,-0.929381,-0.935423,-0.912689,-0.912300,-0.923760,-0.945445,-0.945983,-0.945798,-0.938024,-0.933564,-0.922337,-0.924582,-0.927643
-0.881405,-0.881532,-0.889949,-0.883894,-0.879936,-0.707603,-0.612461,-0.802900,-0.908469,-0.899209,-0.924683,-0.871060,-0.908914,-0.908693,-0.911534,-0.916320,-0.905314,-0.897114,-0.906028,-0.909269,-0.906083,-0.869527,-0.871533,-0.898266,-0.923190,-0.922234,-0.924325,-0.914909,-0.907468,-0.900754,-0.901708,-0.910609
-0.894362,-0.900597,-0.908438,-0.913884,-0.909508,-0.782497,-0.693965,-0.837510,-0.915577,-0.908116,-0.937526,-0.906832,-0.920088,-0.916633,-0.917952,-0.920542,-0.917056,-0.909170,-0.916791,-0.921661,-0.926365,-0.907040,-0.906068,-0.914676,-0.934884,-0.938962,-0.937755,-0.928468,-0.923999,-0.919928,-0.910715,-0.914632
-0.900799,-0.904809,-0.910604,-0.917621,-0.913763,-0.783750,-0.690006,-0.837066,-0.926206,-0.921642,-0.937365,-0.901168,-0.923262,-0.924231,-0.923059,-0.926029,-0.918532,-0.915509,-0.919041,-0.929298,-0.929248,-0.905513,-0.908364,-0.919048,-0.940045,-0.936950,-0.936932,-0.930999,-0.924637,-0.920097,-0.918236,-0.919899
-0.908969,-0.912178,-0.919593,-0.923425,-0.917224,-0.774144,-0.678255,-0.835323,-0.935117,-0.931425,-0.941135,-0.911918,-0.932117,-0.929438,-0.932155,-0.933314,-0.929672,-0.921900,-0.932456,-0.933351,-0.934649,-0.912615,-0.910909,-0.921803,-0.943677,-0.947513,-0.943174,-0.938183,-0.935385,-0.926010,-0.922842,-0.927663
-0.908268,-0.913278,-0.919051,-0.924208,-0.920762,-0.784188,-0.693417,-0.843081,-0.935246,-0.929809,-0.941910,-0.911011,-0.929553,-0.928414,-0.934033,-0.936491,-0.929877,-0.921307,-0.931885,-0.932983,-0.934405,-0.910774,-0.908603,-0.924630,-0.945596,-0.947806,-0.943435,-0.937610,-0.933884,-0.925414,-0.923157,-0.926978
-0.908530,-0.912992,-0.920600,-0.924582,-0.920583,-0.783872,-0.691517,-0.842791,-0.934432,-0.931547,-0.943058,-0.910428,-0.930737,-0.931571,-0.931658,-0.936608,-0.929721,-0.921830,-0.931587,-0.933354,-0.934054,-0.911199,-0.910295,-0.924488,-0.946378,-0.948849,-0.942286,-0.937721,-0.933487,-0.925860,-0.925432,-0.927891
-0.908795,-0.914875,-0.918475,-0.923458,-0.920912,-0.782738,-0.695004,-0.839389,-0.930916,-0.930206,-0.942608,-0.903017,-0.929379,-0.927614,-0.933645,-0.931834,-0.926368,-0.912303,-0.930254,-0.925409,-0.930140,-0.911620,-0.911785,-0.920261,-0.944339,-0.948255,-0.939862,-0.938791,-0.927747,-0.918557,-0.921117,-0.924821
-0.901178,-0.906346,-0.914704,-0.917556,-0.913118,-0.784993,-0.705600,-0.840492,-0.919595,-0.911489,-0.934673,-0.884524,-0.923013,-0.919794,-0.914852,-0.920929,-0.914246,-0.907471,-0.920948,-0.926043,-0.923137,-0.905695,-0.910613,-0.919872,-0.939667,-0.943513,-0.938246,-0.929196,-0.928029,-0.917172,-0.906142,-0.907009
-0.906914,-0.912970,-0.919396,-0.917352,-0.919394,-0.791373,-0.711326,-0.846989,-0.930278,-0.922568,-0.944514,-0.908401,-0.930483,-0.929806,-0.926437,-0.930732,-0.924634,-0.917575,-0.928605,-0.929841,-0.932472,-0.916458,-0.912489,-0.925032,-0.939767,-0.946778,-0.942553,-0.934783,-0.932483,-0.925443,-0.925864,-0.918382
-0.889032,-0.894041,-0.901559,-0.906144,-0.900403,-0.796722,-0.712744,-0.838704,-0.911586,-0.899147,-0.926092,-0.889097,-0.905555,-0.909081,-0.892055,-0.897393,-0.903240,-0.898442,-0.912983,-0.912787,-0.916402,-0.900699,-0.903393,-0.911655,-0.928198,-0.919793,-0.920240,-0.915062,-0.908938,-0.910639,-0.889496,-0.897840
-0.897019,-0.905074,-0.913988,-0.914918,-0.916655,-0.786302,-0.702744,-0.855825,-0.910449,-0.918433,-0.936791,-0.893640,-0.913484,-0.917031,-0.895274,-0.923222,-0.911680,-0.916302,-0.920629,-0.928868,-0.932698,-0.905362,-0.902570,-0.926378,-0.933540,-0.936042,-0.934502,-0.928591,-0.923275,-0.918456,-0.913298,-0.918885
-0.913429,-0.918209,-0.922966,-0.930590,-0.927104,-0.803625,-0.722646,-0.865810,-0.931225,-0.932875,-0.951751,-0.913400,-0.934524,-0.935718,-0.919997,-0.937206,-0.933815,-0.926764,-0.928773,-0.937398,-0.944211,-0.918859,-0.918826,-0.932639,-0.949701,-0.953247,-0.948254,-0.945970,-0.936822,-0.929097,-0.933858,-0.929528
-0.909243,-0.912282,-0.919356,-0.924132,-0.921712,-0.786520,-0.699755,-0.858607,-0.935667,-0.931809,-0.947142,-0.899994,-0.935801,-0.934869,-0.922723,-0.936522,-0.930531,-0.923081,-0.929083,-0.936560,-0.942031,-0.912038,-0.912888,-0.926891,-0.945422,-0.945517,-0.946048,-0.943489,-0.936947,-0.930233,-0.924837,-0.930823
-0.910934,-0.915123,-0.921632,-0.927468,-0.922363,-0.787274,-0.697746,-0.860075,-0.932574,-0.932430,-0.950574,-0.902391,-0.936836,-0.933538,-0.918460,-0.940170,-0.932486,-0.923929,-0.933258,-0.935714,-0.941440,-0.909378,-0.910567,-0.927627,-0.947784,-0.949675,-0.948991,-0.944805,-0.937078,-0.931430,-0.931642,-0.927750
-0.911228,-0.917260,-0.924509,-0.927149,-0.924188,-0.784206,-0.691384,-0.863119,-0.930119,-0.929605,-0.951508,-0.906121,-0.936591,-0.935423,-0.923477,-0.941131,-0.933367,-0.921671,-0.935708,-0.933245,-0.939761,-0.909176,-0.909354,-0.928379,-0.947532,-0.952813,-0.947030,-0.943742,-0.938306,-0.930656,-0.933337,-0.928504
-0.911229,-0.916912,-0.926514,-0.929588,-0.925309,-0.796576,-0.711456,-0.865038,-0.937705,-0.932568,-0.950110,-0.910216,-0.939037,-0.935454,-0.923206,-0.941841,-0.933494,-0.925340,-0.934919,-0.936343,-0.943678,-0.913237,-0.914772,-0.931009,-0.949113,-0.951307,-0.948762,-0.943032,-0.940570,-0.930672,-0.931359,-0.931693
-0.909200,-0.912410,-0.922498,-0.926627,-0.922567,-0.796906,-0.713312,-0.863338,-0.931805,-0.929469,-0.948515,-0.906628,-0.932360,-0.932714,-0.921203,-0.936164,-0.932057,-0.923152,-0.929660,-0.932748,-0.940793,-0.909820,-0.913088,-0.928353,-0.944666,-0.952411,-0.945212,-0.944032,-0.936583,-0.926504,-0.929128,-0.929480
-0.914761,-0.921593,-0.930286,-0.933529,-0.929212,-0.811298,-0.736196,-0.870649,-0.932489,-0.933496,-0.951364,-0.915634,-0.943477,-0.935921,-0.925645,-0.943208,-0.934631,-0.929423,-0.938837,-0.938241,-0.945017,-0.919309,-0.920300,-0.934449,-0.952280,-0.955991,-0.951720,-0.947767,-0.940881,-0.932596,-0.935390,-0.932378
-0.918856,-0.922175,-0.929212,-0.933589,-0.929568,-0.819228,-0.741361,-0.874077,-0.932990,-0.928210,-0.946195,-0.914335,-0.937858,-0.937973,-0.926227,-0.940973,-0.936247,-0.929390,-0.938542,-0.939207,-0.944344,-0.916567,-0.921947,-0.935885,-0.950789,-0.955962,-0.950922,-0.946725,-0.943168,-0.934618,-0.935224,-0.929097
-0.907827,-0.913474,-0.922824,-0.923339,-0.921352,-0.814080,-0.736747,-0.873079,-0.929301,-0.923566,-0.946373,-0.905005,-0.943705,-0.924955,-0.917023,-0.930318,-0.921128,-0.920723,-0.922444,-0.930725,-0.936511,-0.913459,-0.912890,-0.933378,-0.937258,-0.945273,-0.942644,-0.943088,-0.936571,-0.922571,-0.923218,-0.917013
-0.869419,-0.884575,-0.887615,-0.887240,-0.894763,-0.808144,-0.729731,-0.858603,-0.887892,-0.881203,-0.912811,-0.876026,-0.901831,-0.882384,-0.862654,-0.892620,-0.883419,-0.883050,-0.897270,-0.908661,-0.911967,-0.883235,-0.885354,-0.901970,-0.907167,-0.910470,-0.908654,-0.911573,-0.898644,-0.891746,-0.879947,-0.867357
-0.904263,-0.917336,-0.919182,-0.924711,-0.926462,-0.820129,-0.738312,-0.867123,-0.937104,-0.932091,-0.940374,-0.910812,-0.934801,-0.931388,-0.912126,-0.930225,-0.927248,-0.926529,-0.931292,-0.937974,-0.943295,-0.918611,-0.919065,-0.930865,-0.941335,-0.940599,-0.938194,-0.941081,-0.929649,-0.929197,-0.917954,-0.921628
-0.915912,-0.924592,-0.930695,-0.924306,-0.922379,-0.816193,-0.734747,-0.858946,-0.930974,-0.932344,-0.952945,-0.911437,-0.940166,-0.932504,-0.919208,-0.937167,-0.935508,-0.931882,-0.937245,-0.939295,-0.945965,-0.920614,-0.920048,-0.929815,-0.945354,-0.949149,-0.948625,-0.947547,-0.942806,-0.937617,-0.931301,-0.928340
-0.918520,-0.919439,-0.922691,-0.924800,-0.913652,-0.790521,-0.683536,-0.831045,-0.926364,-0.929347,-0.950762,-0.901461,-0.933338,-0.930892,-0.917061,-0.938115,-0.931509,-0.924868,-0.939880,-0.935075,-0.933282,-0.908601,-0.902825,-0.921981,-0.934776,-0.932230,-0.940596,-0.935659,-0.935391,-0.933950,-0.930856,-0.922019
-0.933235,-0.935659,-0.940485,-0.941508,-0.932839,-0.788793,-0.688788,-0.850744,-0.944618,-0.945764,-0.958805,-0.911807,-0.943177,-0.943969,-0.929577,-0.949886,-0.947174,-0.940705,-0.949118,-0.949450,-0.950458,-0.919108,-0.924426,-0.937348,-0.955735,-0.955955,-0.954590,-0.956670,-0.948423,-0.945173,-0.942123,-0.935592
-0.931094,-0.932058,-0.940266,-0.939093,-0.933061,-0.811338,-0.726167,-0.869390,-0.939924,-0.941003,-0.960256,-0.913553,-0.940719,-0.942191,-0.924125,-0.947794,-0.944514,-0.938875,-0.946345,-0.945715,-0.948837,-0.921485,-0.921865,-0.936628,-0.951671,-0.954920,-0.953417,-0.954833,-0.946838,-0.942373,-0.941140,-0.933110
-0.928957,-0.932018,-0.936460,-0.934981,-0.929111,-0.804079,-0.722501,-0.867187,-0.934805,-0.939892,-0.954668,-0.903763,-0.938569,-0.941958,-0.921794,-0.947877,-0.943378,-0.933947,-0.944173,-0.944556,-0.945737,-0.917765,-0.917493,-0.935872,-0.951501,-0.953577,-0.951321,-0.950834,-0.944035,-0.940987,-0.940326,-0.933627
-0.921712,-0.924670,-0.931807,-0.930080,-0.920608,-0.795239,-0.720663,-0.867560,-0.940663,-0.930678,-0.956092,-0.893383,-0.935479,-0.934686,-0.919384,-0.943851,-0.936382,-0.925954,-0.945178,-0.929621,-0.938121,-0.898585,-0.912539,-0.927726,-0.944164,-0.950451,-0.947298,-0.944417,-0.936779,-0.930415,-0.933784,-0.924622
-0.841009,-0.856243,-0.858029,-0.864684,-0.852992,-0.656903,-0.534083,-0.760182,-0.908544,-0.899766,-0.924319,-0.862754,-0.884313,-0.904130,-0.901857,-0.919720,-0.894202,-0.877042,-0.896793,-0.874800,-0.882861,-0.841178,-0.842382,-0.868298,-0.901509,-0.906246,-0.904833,-0.903498,-0.882925,-0.889582,-0.889210,-0.886073
-0.927609,-0.929908,-0.936265,-0.937183,-0.931580,-0.828118,-0.751237,-0.875747,-0.936487,-0.928146,-0.944818,-0.905072,-0.933636,-0.937549,-0.908002,-0.939832,-0.934396,-0.932373,-0.939466,-0.944292,-0.944931,-0.921289,-0.925248,-0.932394,-0.951834,-0.948539,-0.947376,-0.949266,-0.940787,-0.937798,-0.931705,-0.926643
-0.927971,-0.928884,-0.935564,-0.939457,-0.931586,-0.829015,-0.747752,-0.877979,-0.943503,-0.943619,-0.951685,-0.904127,-0.935759,-0.934976,-0.917776,-0.936750,-0.936239,-0.930949,-0.934419,-0.944500,-0.943984,-0.918657,-0.923387,-0.936124,-0.944071,-0.942025,-0.941434,-0.947002,-0.938268,-0.934614,-0.930967,-0.924793
-0.930395,-0.927255,-0.935712,-0.939553,-0.934028,-0.839388,-0.760758,-0.881828,-0.938632,-0.943641,-0.953192,-0.916802,-0.938610,-0.940187,-0.927309,-0.942961,-0.935677,-0.939608,-0.948418,-0.951906,-0.948064,-0.928078,-0.925379,-0.941884,-0.945441,-0.948854,-0.947712,-0.952944,-0.947322,-0.942912,-0.936329,-0.927986
-0.910734,-0.904349,-0.910639,-0.920628,-0.916143,-0.826931,-0.754203,-0.865359,-0.925802,-0.926898,-0.918710,-0.903795,-0.920654,-0.920863,-0.893786,-0.913468,-0.916663,-0.919553,-0.928701,-0.936457,-0.924329,-0.913911,-0.911208,-0.925981,-0.927392,-0.922682,-0.930569,-0.926675,-0.922623,-0.925895,-0.910834,-0.899532
-0.891279,-0.893221,-0.897403,-0.905924,-0.905462,-0.823109,-0.761998,-0.866653,-0.920265,-0.911506,-0.925335,-0.891778,-0.905856,-0.900580,-0.889282,-0.892647,-0.897499,-0.896169,-0.907317,-0.926746,-0.921846,-0.902306,-0.903010,-0.914434,-0.924692,-0.911704,-0.913738,-0.921755,-0.912417,-0.907582,-0.888355,-0.883695
-0.908884,-0.906765,-0.916845,-0.915283,-0.913852,-0.830801,-0.757724,-0.877820,-0.917425,-0.922458,-0.936180,-0.906499,-0.919791,-0.910140,-0.889441,-0.913019,-0.913168,-0.912193,-0.925214,-0.931558,-0.932400,-0.914178,-0.913754,-0.916475,-0.930520,-0.932724,-0.923884,-0.925574,-0.918472,-0.907121,-0.904193,-0.888445
-0.923149,-0.925197,-0.928976,-0.932338,-0.923620,-0.798036,-0.711144,-0.871667,-0.939602,-0.940711,-0.952523,-0.906226,-0.937447,-0.938193,-0.929452,-0.948129,-0.941116,-0.921498,-0.943183,-0.937249,-0.941543,-0.907176,-0.912289,-0.931405,-0.950482,-0.948780,-0.946904,-0.946085,-0.944547,-0.935357,-0.935327,-0.927831
-0.923337,-0.922889,-0.930059,-0.929706,-0.923245,-0.806307,-0.722706,-0.874082,-0.940638,-0.939325,-0.950371,-0.908493,-0.936314,-0.936399,-0.931398,-0.947012,-0.939557,-0.924253,-0.941870,-0.937821,-0.942672,-0.908869,-0.912709,-0.928995,-0.947669,-0.946039,-0.944729,-0.945589,-0.943926,-0.933493,-0.934272,-0.926529
-0.922541,-0.923042,-0.930782,-0.929943,-0.923659,-0.811775,-0.733805,-0.876213,-0.936691,-0.941811,-0.951358,-0.911860,-0.935746,-0.936614,-0.925706,-0.946088,-0.937008,-0.926614,-0.942414,-0.939716,-0.941551,-0.910412,-0.913420,-0.930361,-0.947378,-0.947738,-0.944380,-0.947440,-0.943704,-0.935254,-0.932990,-0.924024
-0.915155,-0.917270,-0.926251,-0.925051,-0.918300,-0.809719,-0.720716,-0.865186,-0.922254,-0.930854,-0.947517,-0.905282,-0.930163,-0.931361,-0.930516,-0.942293,-0.935542,-0.919422,-0.933737,-0.937211,-0.940119,-0.904386,-0.911716,-0.927083,-0.942900,-0.938283,-0.943579,-0.934658,-0.934706,-0.931654,-0.929010,-0.923748
-0.923618,-0.921411,-0.928405,-0.929938,-0.919422,-0.811663,-0.730840,-0.872322,-0.939799,-0.934377,-0.942792,-0.912089,-0.936953,-0.933897,-0.931694,-0.942412,-0.938091,-0.924744,-0.937876,-0.939529,-0.944842,-0.911212,-0.915823,-0.928047,-0.945855,-0.945011,-0.943585,-0.946488,-0.940702,-0.936909,-0.931803,-0.924048
-0.915749,-0.915965,-0.923541,-0.926588,-0.920630,-0.820275,-0.753947,-0.872796,-0.941311,-0.938996,-0.941999,-0.916619,-0.931023,-0.930447,-0.923983,-0.932961,-0.930080,-0.917975,-0.939306,-0.935213,-0.943177,-0.909098,-0.919302,-0.923679,-0.939083,-0.934381,-0.936843,-0.944188,-0.935631,-0.933579,-0.926712,-0.920314
-0.917440,-0.919941,-0.931267,-0.932579,-0.924987,-0.826149,-0.753367,-0.880780,-0.940713,-0.942319,-0.946364,-0.917315,-0.937798,-0.934601,-0.922103,-0.937581,-0.931450,-0.926235,-0.936478,-0.944201,-0.945536,-0.917729,-0.924802,-0.932931,-0.943238,-0.939472,-0.938689,-0.942174,-0.937216,-0.937351,-0.928883,-0.925606
-0.925678,-0.922017,-0.934857,-0.935059,-0.928857,-0.824478,-0.748399,-0.877811,-0.941538,-0.942855,-0.947840,-0.917638,-0.939675,-0.938453,-0.921535,-0.939523,-0.933968,-0.929896,-0.941152,-0.945367,-0.948839,-0.919562,-0.925196,-0.933746,-0.945116,-0.943826,-0.941870,-0.948756,-0.946887,-0.937529,-0.931550,-0.922973
-0.926392,-0.927102,-0.935266,-0.935485,-0.927610,-0.813150,-0.738342,-0.872187,-0.942274,-0.944700,-0.949961,-0.917281,-0.940866,-0.938589,-0.931594,-0.943662,-0.933846,-0.926478,-0.940528,-0.940916,-0.949868,-0.917867,-0.924391,-0.932331,-0.946358,-0.946095,-0.946425,-0.946047,-0.942698,-0.938009,-0.933541,-0.927701
-0.926525,-0.928935,-0.934899,-0.936900,-0.928834,-0.813301,-0.737405,-0.873116,-0.942759,-0.942675,-0.952911,-0.912134,-0.941374,-0.939020,-0.933471,-0.943277,-0.940569,-0.929231,-0.943972,-0.943704,-0.948795,-0.918169,-0.926132,-0.934158,-0.948350,-0.947453,-0.945826,-0.948780,-0.946157,-0.938456,-0.934101,-0.929924
-0.920284,-0.924825,-0.930353,-0.929419,-0.921155,-0.817241,-0.741685,-0.858618,-0.939505,-0.941644,-0.946558,-0.910398,-0.932479,-0.930967,-0.928308,-0.930038,-0.936968,-0.926168,-0.943469,-0.941218,-0.945633,-0.913726,-0.921123,-0.928916,-0.944806,-0.941269,-0.936134,-0.944618,-0.942243,-0.935250,-0.926344,-0.920654
-0.893878,-0.899861,-0.902691,-0.909042,-0.898198,-0.773211,-0.682607,-0.838725,-0.928841,-0.932453,-0.937726,-0.898727,-0.922263,-0.916735,-0.912467,-0.915274,-0.913442,-0.903985,-0.920560,-0.914953,-0.923799,-0.890353,-0.899363,-0.910090,-0.925432,-0.923217,-0.929964,-0.927902,-0.918907,-0.917022,-0.903421,-0.895982
-0.888493,-0.896516,-0.900587,-0.909085,-0.895268,-0.780545,-0.695242,-0.833785,-0.925943,-0.926382,-0.925330,-0.890551,-0.917581,-0.910760,-0.906685,-0.913827,-0.909327,-0.902398,-0.907721,-0.917277,-0.920592,-0.894061,-0.892993,-0.904215,-0.913702,-0.915944,-0.917781,-0.918089,-0.910892,-0.907973,-0.897469,-0.885040
-0.893974,-0.902231,-0.909121,-0.907744,-0.904543,-0.769118,-0.677873,-0.824692,-0.927406,-0.925948,-0.934947,-0.898225,-0.919944,-0.919949,-0.923442,-0.920080,-0.914177,-0.899233,-0.919196,-0.921690,-0.928053,-0.890416,-0.903934,-0.908864,-0.927952,-0.929448,-0.933451,-0.928044,-0.919941,-0.916927,-0.914087,-0.909064
-0.906533,-0.908494,-0.918750,-0.921627,-0.912079,-0.770436,-0.682043,-0.843304,-0.941871,-0.944274,-0.949419,-0.908014,-0.934143,-0.934473,-0.932854,-0.939927,-0.930660,-0.916523,-0.934705,-0.929602,-0.933162,-0.898489,-0.908379,-0.917541,-0.938529,-0.939123,-0.937450,-0.935344,-0.935893,-0.927832,-0.924129,-0.920391
-0.905358,-0.907714,-0.915597,-0.919955,-0.906068,-0.774580,-0.683779,-0.838434,-0.937669,-0.930575,-0.941889,-0.907748,-0.927907,-0.929293,-0.937562,-0.937668,-0.927633,-0.912086,-0.930262,-0.929030,-0.931373,-0.895021,-0.909223,-0.911619,-0.934884,-0.936010,-0.936447,-0.932590,-0.928872,-0.927198,-0.922814,-0.915742
-0.901497,-0.907537,-0.915256,-0.918235,-0.908823,-0.786238,-0.698977,-0.845816,-0.935535,-0.934964,-0.945537,-0.916794,-0.931948,-0.933959,-0.935233,-0.930864,-0.922091,-0.909082,-0.926297,-0.929784,-0.934847,-0.902933,-0.911374,-0.920247,-0.936827,-0.938297,-0.932292,-0.935510,-0.930312,-0.929391,-0.921482,-0.917644
-0.910677,-0.914790,-0.922148,-0.924620,-0.915523,-0.771504,-0.680305,-0.847364,-0.934398,-0.944213,-0.951037,-0.914376,-0.935062,-0.936819,-0.934295,-0.939151,-0.933552,-0.917770,-0.935889,-0.933491,-0.938318,-0.903301,-0.915519,-0.923282,-0.943247,-0.941696,-0.939042,-0.938756,-0.937728,-0.930958,-0.926431,-0.921838
-0.911025,-0.913955,-0.920889,-0.926100,-0.917267,-0.784338,-0.700743,-0.853453,-0.940983,-0.944119,-0.948464,-0.913413,-0.936808,-0.937903,-0.937786,-0.941569,-0.930980,-0.919299,-0.935922,-0.935031,-0.939412,-0.904008,-0.915381,-0.923311,-0.939716,-0.936988,-0.942178,-0.936993,-0.934798,-0.932324,-0.929316,-0.924043
-0.913033,-0.915076,-0.922829,-0.926755,-0.919701,-0.791565,-0.709525,-0.858630,-0.940474,-0.943806,-0.951465,-0.914229,-0.934952,-0.939311,-0.934305,-0.943384,-0.931467,-0.919068,-0.939383,-0.933862,-0.940226,-0.903642,-0.917713,-0.924026,-0.942281,-0.945322,-0.943314,-0.940530,-0.937664,-0.931673,-0.926189,-0.924957
-0.913079,-0.916305,-0.921118,-0.928850,-0.919122,-0.788158,-0.705198,-0.856682,-0.940456,-0.947110,-0.949333,-0.912552,-0.934333,-0.937040,-0.939251,-0.939966,-0.932989,-0.920963,-0.939073,-0.930620,-0.939180,-0.905236,-0.912647,-0.924598,-0.944204,-0.943778,-0.941606,-0.939416,-0.938034,-0.931551,-0.929077,-0.925335
-0.913553,-0.916743,-0.923547,-0.927889,-0.918581,-0.792860,-0.707231,-0.856073,-0.943479,-0.943624,-0.947804,-0.910712,-0.937475,-0.937452,-0.934827,-0.940905,-0.932354,-0.918159,-0.936946,-0.932921,-0.937138,-0.904345,-0.916145,-0.925835,-0.940336,-0.942667,-0.941805,-0.938230,-0.937292,-0.932518,-0.928791,-0.924825
-0.909450,-0.913322,-0.920017,-0.925498,-0.914762,-0.782879,-0.699763,-0.850207,-0.935727,-0.936458,-0.946064,-0.902743,-0.932568,-0.927580,-0.937375,-0.936711,-0.928093,-0.917769,-0.931706,-0.930884,-0.936602,-0.898745,-0.909227,-0.921018,-0.940369,-0.939942,-0.938070,-0.936676,-0.936259,-0.926336,-0.926467,-0.918762
-0.893598,-0.898256,-0.903276,-0.910450,-0.901833,-0.772332,-0.684968,-0.843352,-0.928659,-0.925538,-0.922060,-0.892666,-0.915429,-0.917757,-0.911056,-0.909819,-0.904534,-0.904389,-0.916928,-0.910507,-0.923677,-0.892378,-0.895961,-0.910280,-0.925930,-0.927015,-0.920049,-0.913092,-0.916140,-0.909475,-0.900297,-0.893351
-0.896733,-0.896782,-0.901107,-0.910778,-0.902502,-0.767456,-0.678638,-0.834381,-0.926616,-0.930050,-0.927875,-0.904233,-0.916313,-0.917144,-0.918993,-0.919076,-0.911469,-0.907762,-0.923518,-0.926888,-0.923566,-0.894091,-0.902935,-0.914156,-0.928136,-0.927649,-0.923892,-0.927496,-0.923040,-0.918409,-0.912051,-0.907209
-0.867095,-0.861040,-0.881703,-0.882002,-0.871293,-0.754569,-0.667232,-0.820696,-0.899330,-0.895352,-0.900483,-0.880320,-0.882059,-0.886472,-0.879740,-0.877853,-0.883692,-0.877275,-0.901222,-0.897718,-0.904350,-0.871651,-0.881209,-0.887123,-0.899272,-0.897134,-0.896742,-0.895794,-0.896697,-0.888991,-0.877806,-0.875165
-0.896664,-0.900527,-0.910940,-0.916868,-0.906654,-0.778324,-0.681105,-0.844718,-0.918745,-0.928201,-0.931577,-0.898808,-0.917982,-0.926130,-0.919317,-0.916210,-0.913167,-0.912281,-0.925178,-0.925789,-0.930630,-0.899355,-0.908482,-0.915517,-0.928197,-0.932150,-0.923212,-0.925800,-0.920957,-0.913722,-0.913329,-0.904438
-0.901892,-0.904837,-0.909966,-0.912967,-0.913141,-0.776044,-0.678641,-0.843356,-0.922853,-0.935965,-0.937779,-0.897633,-0.925528,-0.930683,-0.929111,-0.929930,-0.920976,-0.915781,-0.932297,-0.928173,-0.932177,-0.901576,-0.902378,-0.917200,-0.928090,-0.930047,-0.932553,-0.929840,-0.929473,-0.925081,-0.921511,-0.916266
-0.915439,-0.923181,-0.925854,-0.929987,-0.923419,-0.792619,-0.692749,-0.852155,-0.935924,-0.942154,-0.942416,-0.909635,-0.935952,-0.941406,-0.939630,-0.939572,-0.933612,-0.928186,-0.940036,-0.936352,-0.940736,-0.911467,-0.918462,-0.928992,-0.943209,-0.943066,-0.939349,-0.939654,-0.938519,-0.936500,-0.934538,-0.928197
-0.913817,-0.922166,-0.925553,-0.929399,-0.922272,-0.787906,-0.697754,-0.849632,-0.933576,-0.938108,-0.941690,-0.910021,-0.934940,-0.941542,-0.939802,-0.936621,-0.930717,-0.928845,-0.939250,-0.936376,-0.940222,-0.912634,-0.920206,-0.926381,-0.940847,-0.942214,-0.939599,-0.938302,-0.937401,-0.933645,-0.934524,-0.922220
-0.914483,-0.922478,-0.925879,-0.930891,-0.922536,-0.793028,-0.698676,-0.844171,-0.936348,-0.941887,-0.945629,-0.904481,-0.934067,-0.941235,-0.937892,-0.940344,-0.932639,-0.928847,-0.939328,-0.935981,-0.938212,-0.912298,-0.918545,-0.926888,-0.944097,-0.944271,-0.941077,-0.938765,-0.936564,-0.934947,-0.934504,-0.926362
-0.913024,-0.921445,-0.924505,-0.929969,-0.922583,-0.786052,-0.677923,-0.839064,-0.936126,-0.942048,-0.943619,-0.907683,-0.934271,-0.939390,-0.939793,-0.938835,-0.931477,-0.926556,-0.936870,-0.933426,-0.940122,-0.910213,-0.918126,-0.927876,-0.943373,-0.943367,-0.939392,-0.939251,-0.936893,-0.935797,-0.933264,-0.925156
-0.912205,-0.920478,-0.923063,-0.927676,-0.920373,-0.786045,-0.687643,-0.846451,-0.937503,-0.941539,-0.944457,-0.907327,-0.934782,-0.941435,-0.939213,-0.936452,-0.929459,-0.928914,-0.934146,-0.929398,-0.935421,-0.909852,-0.918779,-0.925561,-0.944094,-0.942980,-0.941169,-0.939924,-0.933444,-0.934521,-0.932375,-0.926063
-0.913930,-0.920039,-0.923930,-0.927777,-0.923052,-0.788757,-0.688824,-0.846422,-0.936972,-0.941076,-0.943617,-0.907226,-0.932680,-0.941165,-0.935171,-0.937508,-0.932800,-0.929037,-0.938890,-0.935705,-0.938245,-0.911105,-0.917949,-0.927920,-0.941451,-0.941613,-0.940200,-0.939003,-0.937353,-0.936477,-0.932187,-0.925073
-0.912299,-0.918223,-0.922993,-0.927421,-0.920512,-0.783037,-0.679698,-0.841763,-0.932984,-0.938588,-0.944188,-0.903937,-0.933057,-0.939894,-0.939946,-0.939578,-0.930408,-0.927110,-0.939030,-0.934831,-0.938947,-0.906666,-0.916510,-0.926667,-0.942115,-0.941931,-0.941858,-0.936360,-0.937074,-0.933868,-0.935169,-0.924499
-0.910136,-0.915739,-0.919445,-0.925640,-0.919055,-0.774655,-0.669629,-0.836826,-0.935016,-0.940199,-0.941145,-0.902044,-0.932084,-0.938209,-0.935589,-0.934629,-0.927394,-0.925096,-0.934985,-0.931983,-0.934723,-0.905665,-0.914234,-0.923303,-0.940023,-0.940108,-0.938667,-0.931646,-0.932701,-0.930520,-0.932496,-0.922257
-0.905296,-0.913015,-0.917909,-0.923593,-0.913991,-0.775922,-0.675555,-0.838114,-0.934852,-0.936513,-0.938431,-0.895935,-0.921488,-0.934470,-0.938342,-0.932629,-0.927497,-0.920337,-0.932597,-0.926771,-0.931222,-0.906627,-0.914858,-0.920794,-0.937439,-0.941711,-0.936619,-0.933496,-0.930244,-0.931384,-0.928286,-0.918573
-0.907901,-0.913712,-0.913207,-0.919130,-0.916827,-0.780629,-0.677747,-0.848644,-0.928965,-0.934825,-0.939047,-0.900915,-0.928365,-0.936368,-0.926441,-0.934684,-0.927633,-0.923122,-0.930567,-0.931982,-0.935197,-0.905223,-0.912766,-0.923761,-0.934293,-0.939773,-0.934184,-0.927401,-0.934625,-0.935054,-0.928061,-0.924239
-0.882135,-0.894112,-0.893702,-0.907376,-0.897377,-0.776001,-0.672091,-0.816794,-0.908647,-0.921346,-0.920962,-0.891760,-0.904079,-0.910791,-0.918619,-0.900654,-0.893171,-0.905805,-0.911125,-0.914053,-0.917499,-0.891468,-0.896732,-0.908177,-0.914421,-0.919989,-0.911250,-0.920070,-0.900581,-0.911752,-0.902165,-0.889870
-0.932220,-0.937931,-0.940802,-0.939878,-0.937491,-0.791088,-0.709872,-0.873509,-0.939204,-0.943546,-0.947107,-0.902592,-0.940102,-0.950542,-0.955777,-0.950977,-0.951311,-0.940168,-0.955705,-0.944293,-0.945706,-0.917618,-0.934878,-0.941857,-0.955074,-0.960212,-0.952854,-0.949801,-0.947102,-0.943828,-0.952519,-0.945699
-0.926395,-0.932785,-0.935826,-0.934691,-0.932661,-0.809674,-0.729167,-0.875879,-0.931189,-0.936424,-0.942596,-0.909408,-0.935341,-0.943836,-0.953041,-0.945121,-0.941792,-0.938683,-0.950270,-0.940449,-0.944134,-0.916214,-0.926919,-0.937875,-0.949027,-0.952434,-0.948251,-0.947321,-0.941952,-0.939847,-0.943931,-0.938580
-0.921720,-0.927163,-0.928419,-0.931858,-0.928235,-0.753715,-0.673455,-0.853614,-0.934279,-0.936786,-0.946387,-0.899617,-0.932467,-0.945389,-0.953258,-0.945454,-0.942212,-0.934788,-0.949787,-0.939050,-0.946622,-0.901303,-0.920669,-0.933396,-0.948917,-0.951968,-0.946188,-0.946056,-0.943121,-0.938147,-0.943496,-0.940076
-0.926822,-0.931270,-0.935904,-0.937432,-0.935524,-0.817728,-0.743271,-0.875119,-0.931543,-0.930557,-0.944201,-0.905741,-0.936921,-0.943750,-0.949770,-0.942910,-0.939756,-0.936372,-0.947622,-0.937193,-0.946368,-0.919882,-0.929508,-0.935058,-0.945776,-0.949731,-0.946646,-0.946528,-0.943437,-0.937873,-0.941738,-0.937386
-0.925438,-0.935043,-0.936366,-0.935628,-0.933384,-0.826289,-0.753843,-0.884765,-0.935036,-0.938617,-0.945398,-0.914410,-0.938512,-0.944663,-0.948613,-0.939875,-0.940440,-0.935139,-0.946338,-0.942381,-0.946418,-0.923581,-0.928218,-0.938055,-0.948354,-0.951689,-0.946489,-0.943550,-0.942183,-0.940392,-0.938546,-0.937602
-0.926408,-0.933755,-0.936640,-0.932838,-0.932306,-0.826572,-0.762090,-0.882492,-0.932157,-0.940419,-0.944666,-0.915534,-0.939510,-0.944822,-0.950221,-0.937531,-0.939227,-0.937892,-0.944683,-0.939595,-0.950261,-0.922389,-0.933337,-0.940410,-0.944748,-0.945005,-0.940709,-0.942765,-0.941442,-0.940818,-0.942186,-0.933097
-0.922883,-0.928164,-0.930324,-0.931336,-0.928040,-0.817508,-0.737728,-0.873671,-0.927377,-0.930303,-0.942892,-0.913777,-0.933246,-0.939683,-0.941745,-0.934733,-0.932148,-0.935363,-0.938807,-0.935038,-0.941709,-0.913785,-0.928582,-0.933897,-0.941265,-0.946744,-0.940309,-0.940302,-0.942399,-0.933999,-0.937395,-0.930163
-0.914844,-0.922154,-0.919100,-0.929284,-0.921872,-0.814336,-0.735607,-0.874068,-0.929473,-0.933643,-0.935556,-0.911528,-0.935728,-0.936121,-0.945273,-0.938348,-0.927743,-0.930008,-0.936341,-0.933194,-0.939989,-0.914432,-0.920784,-0.931194,-0.944306,-0.942730,-0.936249,-0.940083,-0.933243,-0.930394,-0.933449,-0.930453
-0.912135,-0.921336,-0.920949,-0.925814,-0.918666,-0.809178,-0.728703,-0.861733,-0.928405,-0.925766,-0.924649,-0.902927,-0.935513,-0.930444,-0.937863,-0.932214,-0.926343,-0.919545,-0.929026,-0.934314,-0.937747,-0.913881,-0.920439,-0.933531,-0.939239,-0.945415,-0.934146,-0.939979,-0.934805,-0.929769,-0.933402,-0.925429
-0.915629,-0.923584,-0.920012,-0.927613,-0.925502,-0.806157,-0.721187,-0.863939,-0.931219,-0.924703,-0.936325,-0.905263,-0.936751,-0.939337,-0.946285,-0.937712,-0.926669,-0.929492,-0.941536,-0.939873,-0.941169,-0.912132,-0.921425,-0.934197,-0.942682,-0.949840,-0.938649,-0.944775,-0.935735,-0.935054,-0.937028,-0.931485
-0.925275,-0.931854,-0.934249,-0.933891,-0.934627,-0.816359,-0.736498,-0.876942,-0.933296,-0.935249,-0.939784,-0.906849,-0.938394,-0.945597,-0.955177,-0.946097,-0.937448,-0.937442,-0.945526,-0.941423,-0.946293,-0.921320,-0.926903,-0.939448,-0.951626,-0.956467,-0.948464,-0.943837,-0.944092,-0.936538,-0.937314,-0.936594
-0.919004,-0.922324,-0.919282,-0.930032,-0.923879,-0.796174,-0.718748,-0.862160,-0.932758,-0.927841,-0.928351,-0.886086,-0.932204,-0.931619,-0.948983,-0.935498,-0.921454,-0.924328,-0.931375,-0.935871,-0.938094,-0.904685,-0.910394,-0.926452,-0.933478,-0.944800,-0.939086,-0.934302,-0.932481,-0.924280,-0.926664,-0.916880
-0.912278,-0.920865,-0.920626,-0.932168,-0.932748,-0.841476,-0.769144,-0.885881,-0.922496,-0.925471,-0.945019,-0.917886,-0.934368,-0.926701,-0.930370,-0.922303,-0.921116,-0.930956,-0.928170,-0.937420,-0.937826,-0.913096,-0.927173,-0.930984,-0.937120,-0.937360,-0.933281,-0.938324,-0.928635,-0.921386,-0.916891,-0.915084
-0.937043,-0.944372,-0.945596,-0.948140,-0.943207,-0.829213,-0.752461,-0.877506,-0.948066,-0.952384,-0.957116,-0.928189,-0.954898,-0.955632,-0.963395,-0.958585,-0.951320,-0.948350,-0.950220,-0.951843,-0.957660,-0.933070,-0.936909,-0.943590,-0.961045,-0.961868,-0.957628,-0.957945,-0.949518,-0.949858,-0.952165,-0.953143
-0.933721,-0.933904,-0.933356,-0.939957,-0.938946,-0.841296,-0.768003,-0.883300,-0.938709,-0.939332,-0.950565,-0.915240,-0.946184,-0.944470,-0.958534,-0.942686,-0.942147,-0.939129,-0.941338,-0.942376,-0.950972,-0.927906,-0.931495,-0.942328,-0.951965,-0.953704,-0.947507,-0.947802,-0.944539,-0.939806,-0.941653,-0.938678
-0.934890,-0.937533,-0.937503,-0.939375,-0.940366,-0.838258,-0.762106,-0.878433,-0.941111,-0.937302,-0.949785,-0.922593,-0.948882,-0.948524,-0.950293,-0.946009,-0.945349,-0.942012,-0.944382,-0.942978,-0.952856,-0.921557,-0.933814,-0.943086,-0.953913,-0.954814,-0.951039,-0.950971,-0.944619,-0.942688,-0.942354,-0.944897
-0.936352,-0.931816,-0.934605,-0.938119,-0.937364,-0.837596,-0.757965,-0.876224,-0.936115,-0.931107,-0.948194,-0.921870,-0.944506,-0.943504,-0.953837,-0.943928,-0.943729,-0.943871,-0.941345,-0.946449,-0.950673,-0.930893,-0.931387,-0.943579,-0.942371,-0.952101,-0.948875,-0.952059,-0.940385,-0.946070,-0.941552,-0.940519
-0.920883,-0.922482,-0.920850,-0.920594,-0.919564,-0.812480,-0.732019,-0.862817,-0.929565,-0.932207,-0.946949,-0.917443,-0.934690,-0.937187,-0.949619,-0.940352,-0.938626,-0.923072,-0.928356,-0.945521,-0.943472,-0.915850,-0.917900,-0.928692,-0.942201,-0.947482,-0.941478,-0.940738,-0.936422,-0.937032,-0.938655,-0.937124
-0.925315,-0.929282,-0.930954,-0.937331,-0.932976,-0.824827,-0.737902,-0.864964,-0.943973,-0.946259,-0.950812,-0.925798,-0.942119,-0.947779,-0.947109,-0.948189,-0.945570,-0.937766,-0.942421,-0.947851,-0.948909,-0.918891,-0.926984,-0.934234,-0.947782,-0.953043,-0.946922,-0.947605,-0.937118,-0.941241,-0.942382,-0.940224
-0.927278,-0.930301,-0.936555,-0.938430,-0.933345,-0.828221,-0.746399,-0.877500,-0.936292,-0.941309,-0.950248,-0.928264,-0.940061,-0.949643,-0.954968,-0.947857,-0.947523,-0.937709,-0.945423,-0.949011,-0.946513,-0.920967,-0.927947,-0.941831,-0.946092,-0.952147,-0.943722,-0.947161,-0.943289,-0.944560,-0.940364,-0.942485
-0.931268,-0.935556,-0.936426,-0.938550,-0.935925,-0.815157,-0.724645,-0.868559,-0.941627,-0.944411,-0.954788,-0.921004,-0.947462,-0.950424,-0.961858,-0.950340,-0.948083,-0.940804,-0.945299,-0.941090,-0.950804,-0.920560,-0.930986,-0.940864,-0.955766,-0.957630,-0.950329,-0.952071,-0.944539,-0.944975,-0.946303,-0.947372
-0.929031,-0.934759,-0.935209,-0.940422,-0.937199,-0.830127,-0.749869,-0.880766,-0.943062,-0.944752,-0.953463,-0.927884,-0.945255,-0.946564,-0.959887,-0.949542,-0.946120,-0.940660,-0.944751,-0.948261,-0.950745,-0.922413,-0.929953,-0.943431,-0.955245,-0.956391,-0.949628,-0.950623,-0.943042,-0.942990,-0.942153,-0.945354
-0.932303,-0.931546,-0.933662,-0.940246,-0.936885,-0.827762,-0.741921,-0.886076,-0.942687,-0.946522,-0.953415,-0.927657,-0.947782,-0.951237,-0.957023,-0.950777,-0.948406,-0.940405,-0.943215,-0.949354,-0.950542,-0.916038,-0.928843,-0.940324,-0.955990,-0.958242,-0.950596,-0.953014,-0.944424,-0.943230,-0.944627,-0.942121
-0.936780,-0.939718,-0.939866,-0.941219,-0.939268,-0.833953,-0.755034,-0.888625,-0.945752,-0.943367,-0.950998,-0.933031,-0.950197,-0.947310,-0.960236,-0.949398,-0.947075,-0.939622,-0.945394,-0.949116,-0.953575,-0.925672,-0.926037,-0.946313,-0.955508,-0.958159,-0.952103,-0.947900,-0.946339,-0.943926,-0.944438,-0.944015
-0.933008,-0.936916,-0.933590,-0.939758,-0.939622,-0.843241,-0.771524,-0.889759,-0.943560,-0.946366,-0.950335,-0.930851,-0.948955,-0.949040,-0.947453,-0.944170,-0.948488,-0.940295,-0.941366,-0.950148,-0.953326,-0.925529,-0.932701,-0.943517,-0.954483,-0.954328,-0.949845,-0.948735,-0.944440,-0.941316,-0.939316,-0.943887
-0.916713,-0.921813,-0.924498,-0.931230,-0.927449,-0.841088,-0.762102,-0.878788,-0.930251,-0.926259,-0.942807,-0.923396,-0.927814,-0.926649,-0.934680,-0.917432,-0.922868,-0.920964,-0.928846,-0.934564,-0.937681,-0.922810,-0.922015,-0.935442,-0.936584,-0.941974,-0.933841,-0.942254,-0.927264,-0.924629,-0.917993,-0.920613
-0.929039,-0.932937,-0.934925,-0.935413,-0.937375,-0.842865,-0.768704,-0.891716,-0.941147,-0.946589,-0.955412,-0.933023,-0.946837,-0.945368,-0.953987,-0.942178,-0.937872,-0.939680,-0.939346,-0.947415,-0.951453,-0.926721,-0.929741,-0.943296,-0.952056,-0.952722,-0.949688,-0.946879,-0.937184,-0.938444,-0.933971,-0.932032
-0.930627,-0.936837,-0.936742,-0.939481,-0.936189,-0.842876,-0.767227,-0.890679,-0.940139,-0.941168,-0.957188,-0.932148,-0.945349,-0.940759,-0.952614,-0.938583,-0.941851,-0.942185,-0.938885,-0.949837,-0.956132,-0.925969,-0.933922,-0.945151,-0.953662,-0.947243,-0.944312,-0.948445,-0.944199,-0.943550,-0.934272,-0.938007
-0.938202,-0.940107,-0.935755,-0.943283,-0.944703,-0.836656,-0.766542,-0.887592,-0.949191,-0.949548,-0.961765,-0.934715,-0.950981,-0.951205,-0.957134,-0.950443,-0.952171,-0.947066,-0.940885,-0.954246,-0.961549,-0.926650,-0.928370,-0.946282,-0.959196,-0.955995,-0.953021,-0.953391,-0.947415,-0.948191,-0.943222,-0.943397
-0.922027,-0.929187,-0.926178,-0.933129,-0.934441,-0.820423,-0.735621,-0.881147,-0.939171,-0.943789,-0.959401,-0.926058,-0.943028,-0.947612,-0.950362,-0.946312,-0.941717,-0.932577,-0.936975,-0.944687,-0.954499,-0.922475,-0.930497,-0.943092,-0.954927,-0.952752,-0.948150,-0.946008,-0.940926,-0.945564,-0.937912,-0.937212
-0.932131,-0.936143,-0.934526,-0.941887,-0.937062,-0.810046,-0.714265,-0.875211,-0.938139,-0.947492,-0.958335,-0.926539,-0.946173,-0.951249,-0.955826,-0.950950,-0.949377,-0.939727,-0.946524,-0.949239,-0.954219,-0.922435,-0.931194,-0.944085,-0.959830,-0.956097,-0.948544,-0.952649,-0.947379,-0.947104,-0.943793,-0.941897
-0.930850,-0.934457,-0.931831,-0.940798,-0.938452,-0.824261,-0.739864,-0.883654,-0.939432,-0.944007,-0.960563,-0.929374,-0.945188,-0.950617,-0.955933,-0.949165,-0.948954,-0.940752,-0.943942,-0.948496,-0.954344,-0.922906,-0.929863,-0.944897,-0.959530,-0.952582,-0.949009,-0.950014,-0.942400,-0.945954,-0.941934,-0.940839
-0.930041,-0.934688,-0.933926,-0.940987,-0.937361,-0.817332,-0.739569,-0.882055,-0.941858,-0.947303,-0.960261,-0.927064,-0.944972,-0.948901,-0.962186,-0.951599,-0.947875,-0.939666,-0.944755,-0.943514,-0.954326,-0.921254,-0.927334,-0.944063,-0.958665,-0.954729,-0.949646,-0.949149,-0.946518,-0.943971,-0.942204,-0.940039
-0.925797,-0.930788,-0.926570,-0.936074,-0.935122,-0.822230,-0.738812,-0.877506,-0.939433,-0.945740,-0.957555,-0.925165,-0.942941,-0.945650,-0.961538,-0.948440,-0.945508,-0.937354,-0.941693,-0.938905,-0.947700,-0.916370,-0.927583,-0.941073,-0.953864,-0.949110,-0.947758,-0.947116,-0.940351,-0.941277,-0.937984,-0.934381
-0.929790,-0.936897,-0.934770,-0.940020,-0.936754,-0.816949,-0.733703,-0.870341,-0.928970,-0.940747,-0.953629,-0.932886,-0.945301,-0.948109,-0.955911,-0.949380,-0.944956,-0.939411,-0.942009,-0.948559,-0.954151,-0.922959,-0.932621,-0.942927,-0.957231,-0.953477,-0.949617,-0.951074,-0.944129,-0.943953,-0.937120,-0.935589
-0.926427,-0.933015,-0.926319,-0.933611,-0.935223,-0.829883,-0.750118,-0.882596,-0.934192,-0.936263,-0.949391,-0.929483,-0.941548,-0.943476,-0.954161,-0.942770,-0.941953,-0.936542,-0.935934,-0.944705,-0.949348,-0.926242,-0.930841,-0.943915,-0.955634,-0.951215,-0.946928,-0.951168,-0.942008,-0.944308,-0.934169,-0.934430
-0.920319,-0.925384,-0.926362,-0.933192,-0.928922,-0.836224,-0.755066,-0.884671,-0.936577,-0.938875,-0.959652,-0.933847,-0.941771,-0.938333,-0.949960,-0.941449,-0.932118,-0.930975,-0.932358,-0.945267,-0.952489,-0.928126,-0.934719,-0.947060,-0.949133,-0.948906,-0.940974,-0.948375,-0.938311,-0.942116,-0.930273,-0.931243
-0.934477,-0.938231,-0.938998,-0.943835,-0.942551,-0.830787,-0.747865,-0.884806,-0.942159,-0.946360,-0.959513,-0.934938,-0.949490,-0.952261,-0.957397,-0.950658,-0.946850,-0.944963,-0.946368,-0.951869,-0.959290,-0.930474,-0.939161,-0.950217,-0.958451,-0.957720,-0.953126,-0.954749,-0.949572,-0.947316,-0.941687,-0.941618
-0.915765,-0.923344,-0.923886,-0.932369,-0.930025,-0.825983,-0.748104,-0.878221,-0.928534,-0.936002,-0.941319,-0.919473,-0.936171,-0.934466,-0.935713,-0.929760,-0.928413,-0.929215,-0.933344,-0.936123,-0.941650,-0.923765,-0.925960,-0.941455,-0.940912,-0.942640,-0.939421,-0.937098,-0.929251,-0.920225,-0.919445,-0.921087
-0.919648,-0.924661,-0.926590,-0.934991,-0.933290,-0.820083,-0.743603,-0.881854,-0.924274,-0.924990,-0.951794,-0.922416,-0.929781,-0.937006,-0.941766,-0.929745,-0.929650,-0.929061,-0.932585,-0.937899,-0.945422,-0.921079,-0.928031,-0.939835,-0.945598,-0.944623,-0.944084,-0.942810,-0.933388,-0.927940,-0.922795,-0.925007
-0.900807,-0.913291,-0.918950,-0.922986,-0.917773,-0.810853,-0.715078,-0.869116,-0.936481,-0.940695,-0.938079,-0.919767,-0.929804,-0.933510,-0.937460,-0.929217,-0.921688,-0.922596,-0.926767,-0.932475,-0.941708,-0.915501,-0.916706,-0.929298,-0.936651,-0.937777,-0.932716,-0.937457,-0.936271,-0.924724,-0.924753,-0.924815
-0.921893,-0.925733,-0.928511,-0.934800,-0.929212,-0.799792,-0.711172,-0.873341,-0.935938,-0.940015,-0.949861,-0.909583,-0.937445,-0.941681,-0.947704,-0.943544,-0.938556,-0.930664,-0.938321,-0.936817,-0.943972,-0.909700,-0.914642,-0.936597,-0.949139,-0.951760,-0.942856,-0.941321,-0.940965,-0.935699,-0.935017,-0.936458
-0.918710,-0.920224,-0.925746,-0.933005,-0.929558,-0.815508,-0.734413,-0.878967,-0.934242,-0.941824,-0.948305,-0.915079,-0.938451,-0.937758,-0.945363,-0.940991,-0.931408,-0.925688,-0.936854,-0.938887,-0.943583,-0.916219,-0.920740,-0.935068,-0.948031,-0.949974,-0.941850,-0.944560,-0.941138,-0.931666,-0.931144,-0.933272
-0.919239,-0.924323,-0.927124,-0.934016,-0.926382,-0.822873,-0.741294,-0.879838,-0.932019,-0.938654,-0.948964,-0.924375,-0.938609,-0.940618,-0.946363,-0.941562,-0.932116,-0.928835,-0.935806,-0.941590,-0.947214,-0.918049,-0.924212,-0.938475,-0.947530,-0.949202,-0.941302,-0.944473,-0.942300,-0.935300,-0.934622,-0.931285
-0.911376,-0.917120,-0.919491,-0.924237,-0.924732,-0.818784,-0.740192,-0.881132,-0.928420,-0.939822,-0.946249,-0.919966,-0.931629,-0.930588,-0.934686,-0.933964,-0.927254,-0.925144,-0.932257,-0.938479,-0.941970,-0.912415,-0.919426,-0.933565,-0.941725,-0.946767,-0.939531,-0.940520,-0.932506,-0.927884,-0.927207,-0.927231
-0.851756,-0.845598,-0.858230,-0.867819,-0.849440,-0.657373,-0.512739,-0.769340,-0.896560,-0.900743,-0.906116,-0.849278,-0.892952,-0.895931,-0.912351,-0.915229,-0.888771,-0.868517,-0.883063,-0.903043,-0.894557,-0.839388,-0.840334,-0.870172,-0.903147,-0.906648,-0.900271,-0.899190,-0.898280,-0.884536,-0.888856,-0.898208
-0.922181,-0.923203,-0.931389,-0.932174,-0.928180,-0.837066,-0.767957,-0.885222,-0.923060,-0.923888,-0.943506,-0.925208,-0.929559,-0.939953,-0.933014,-0.938409,-0.929529,-0.932052,-0.935240,-0.941155,-0.940595,-0.923205,-0.921733,-0.932987,-0.942238,-0.942192,-0.926774,-0.937431,-0.931814,-0.935404,-0.931349,-0.921155
-0.918907,-0.918026,-0.927169,-0.932646,-0.925438,-0.839429,-0.771673,-0.887734,-0.916718,-0.928797,-0.936445,-0.930013,-0.926596,-0.934109,-0.933051,-0.930462,-0.926654,-0.932007,-0.934117,-0.938667,-0.946098,-0.920280,-0.926345,-0.938166,-0.943741,-0.943935,-0.932664,-0.936195,-0.932783,-0.925866,-0.927650,-0.931112
-0.924891,-0.929817,-0.937022,-0.940540,-0.938567,-0.840998,-0.769477,-0.895933,-0.929918,-0.936591,-0.950035,-0.934455,-0.937937,-0.943836,-0.947805,-0.936478,-0.934105,-0.938661,-0.946306,-0.946081,-0.953261,-0.930892,-0.930300,-0.945437,-0.947696,-0.952203,-0.945056,-0.948667,-0.945930,-0.938033,-0.934712,-0.937080
-0.928987,-0.931981,-0.936009,-0.940202,-0.937991,-0.838706,-0.763137,-0.892694,-0.925832,-0.932321,-0.948303,-0.925614,-0.938344,-0.942057,-0.947691,-0.939525,-0.934552,-0.936872,-0.942840,-0.946152,-0.952130,-0.925825,-0.926555,-0.940211,-0.946828,-0.949335,-0.943114,-0.944361,-0.944794,-0.937699,-0.937996,-0.938299
-0.928553,-0.932627,-0.937227,-0.944415,-0.939279,-0.835147,-0.765255,-0.893182,-0.931306,-0.944459,-0.954419,-0.933288,-0.939430,-0.945357,-0.950637,-0.945817,-0.939257,-0.934070,-0.942883,-0.946029,-0.954021,-0.926525,-0.936223,-0.941691,-0.953133,-0.955268,-0.947161,-0.953060,-0.944705,-0.938428,-0.938185,-0.938859
-0.903461,-0.911660,-0.914439,-0.929646,-0.925719,-0.826855,-0.762730,-0.887171,-0.921993,-0.933469,-0.940060,-0.909465,-0.924807,-0.922777,-0.916330,-0.916734,-0.914809,-0.921623,-0.927660,-0.927196,-0.933085,-0.920914,-0.928070,-0.935745,-0.942630,-0.937308,-0.935652,-0.934004,-0.922978,-0.912431,-0.908626,-0.902244
-0.900648,-0.911175,-0.913470,-0.925192,-0.918451,-0.796389,-0.726242,-0.869216,-0.922968,-0.932531,-0.938088,-0.909153,-0.922413,-0.926627,-0.922615,-0.922265,-0.915876,-0.914183,-0.923911,-0.924673,-0.931641,-0.910194,-0.915984,-0.919966,-0.938420,-0.938284,-0.932313,-0.932863,-0.920752,-0.918196,-0.907863,-0.909516
-0.916869,-0.921608,-0.924350,-0.932822,-0.921998,-0.780615,-0.683347,-0.850402,-0.928875,-0.941190,-0.941051,-0.909822,-0.929477,-0.938845,-0.942166,-0.940846,-0.933113,-0.924062,-0.935991,-0.934559,-0.938704,-0.905764,-0.915251,-0.930092,-0.949740,-0.949681,-0.943244,-0.941091,-0.938112,-0.932298,-0.934054,-0.933933
-0.916982,-0.922233,-0.921151,-0.927146,-0.923873,-0.809474,-0.732821,-0.869181,-0.924219,-0.940362,-0.938294,-0.913641,-0.929757,-0.931349,-0.931344,-0.937756,-0.927712,-0.926108,-0.933727,-0.930472,-0.942000,-0.910408,-0.918365,-0.933426,-0.947045,-0.944292,-0.939695,-0.937306,-0.933763,-0.928317,-0.924714,-0.925833
-0.911133,-0.919711,-0.926161,-0.933510,-0.925179,-0.814062,-0.724425,-0.865130,-0.923988,-0.942098,-0.945991,-0.916103,-0.932142,-0.931990,-0.934638,-0.938030,-0.929745,-0.928360,-0.934059,-0.940099,-0.945496,-0.919949,-0.927573,-0.936669,-0.947314,-0.941615,-0.939660,-0.941231,-0.933403,-0.931901,-0.924944,-0.931551
-0.914470,-0.916586,-0.923809,-0.931410,-0.928196,-0.817539,-0.735932,-0.870194,-0.924269,-0.941474,-0.938699,-0.921002,-0.931028,-0.933410,-0.936784,-0.933468,-0.925559,-0.927040,-0.932905,-0.937769,-0.945143,-0.920801,-0.927185,-0.933878,-0.944748,-0.941097,-0.943175,-0.940360,-0.935971,-0.931494,-0.927685,-0.930106
-0.918800,-0.921257,-0.931727,-0.933182,-0.931986,-0.838079,-0.763628,-0.874373,-0.920752,-0.939560,-0.931300,-0.927335,-0.934724,-0.932583,-0.920467,-0.931803,-0.924743,-0.931273,-0.940519,-0.944610,-0.948237,-0.927625,-0.931437,-0.936037,-0.949701,-0.943695,-0.941936,-0.940584,-0.940652,-0.933160,-0.929162,-0.929964
-0.926963,-0.926365,-0.927734,-0.939000,-0.931675,-0.823458,-0.751309,-0.861816,-0.925800,-0.943256,-0.947225,-0.928479,-0.937774,-0.937079,-0.927914,-0.935919,-0.933736,-0.934100,-0.943973,-0.950412,-0.947226,-0.926910,-0.934596,-0.936419,-0.944319,-0.944604,-0.942991,-0.943830,-0.941520,-0.935503,-0.929670,-0.931634
-0.928499,-0.930537,-0.937632,-0.943785,-0.937765,-0.831857,-0.753877,-0.881808,-0.935712,-0.947397,-0.950578,-0.930265,-0.940513,-0.940092,-0.938647,-0.941980,-0.936660,-0.938129,-0.948102,-0.950968,-0.951002,-0.930868,-0.936313,-0.944490,-0.955136,-0.950462,-0.950591,-0.947505,-0.942696,-0.937218,-0.934741,-0.933786
-0.930623,-0.931162,-0.937886,-0.943659,-0.937893,-0.819480,-0.747528,-0.880589,-0.935092,-0.945802,-0.949597,-0.928933,-0.940199,-0.941004,-0.939045,-0.943438,-0.938583,-0.937124,-0.947737,-0.947950,-0.947831,-0.927620,-0.934665,-0.943234,-0.955964,-0.952249,-0.947356,-0.949725,-0.942294,-0.937103,-0.936161,-0.937204
-0.929708,-0.930961,-0.940287,-0.944760,-0.938779,-0.836682,-0.761118,-0.881381,-0.936172,-0.946657,-0.949985,-0.930323,-0.939602,-0.940288,-0.940656,-0.943586,-0.939187,-0.936763,-0.947991,-0.948156,-0.951483,-0.928890,-0.936828,-0.943518,-0.956388,-0.953288,-0.949663,-0.950831,-0.944870,-0.938568,-0.936880,-0.938141
-0.928673,-0.931462,-0.938133,-0.942777,-0.934662,-0.827727,-0.755542,-0.869535,-0.933030,-0.944384,-0.950918,-0.926957,-0.940333,-0.939451,-0.938140,-0.943347,-0.938441,-0.935446,-0.942487,-0.948738,-0.951519,-0.926865,-0.933632,-0.941298,-0.957981,-0.951934,-0.949361,-0.950052,-0.945461,-0.937432,-0.935319,-0.936231
-0.904647,-0.898747,-0.911116,-0.912911,-0.907576,-0.791370,-0.709273,-0.853747,-0.900991,-0.923622,-0.927900,-0.904352,-0.919606,-0.917226,-0.927734,-0.926568,-0.916702,-0.916046,-0.922343,-0.919979,-0.921383,-0.894037,-0.902332,-0.913518,-0.934308,-0.925890,-0.921069,-0.926981,-0.924245,-0.909297,-0.913181,-0.909088
-0.897255,-0.896963,-0.904958,-0.911224,-0.907664,-0.805853,-0.735776,-0.860764,-0.906969,-0.909403,-0.916679,-0.898075,-0.909041,-0.905322,-0.901454,-0.908581,-0.888985,-0.893569,-0.908822,-0.915995,-0.924630,-0.896733,-0.905840,-0.912455,-0.930119,-0.926338,-0.912843,-0.916992,-0.900414,-0.899647,-0.893182,-0.896736
-0.902730,-0.904049,-0.918254,-0.918648,-0.918136,-0.807606,-0.737506,-0.869684,-0.917302,-0.936197,-0.930069,-0.905949,-0.916869,-0.915516,-0.919256,-0.917654,-0.909427,-0.913594,-0.927860,-0.928496,-0.931607,-0.908578,-0.914047,-0.923128,-0.934153,-0.934743,-0.928141,-0.921820,-0.922732,-0.914809,-0.907436,-0.912883
-0.923413,-0.923852,-0.929940,-0.934855,-0.928308,-0.815907,-0.741406,-0.875597,-0.939129,-0.949368,-0.956680,-0.922541,-0.937971,-0.941484,-0.944619,-0.947047,-0.938091,-0.935087,-0.944767,-0.945578,-0.947741,-0.917053,-0.922822,-0.936343,-0.958791,-0.947154,-0.943359,-0.942419,-0.944173,-0.939734,-0.934204,-0.934771
-0.916597,-0.919664,-0.926948,-0.934998,-0.929831,-0.810709,-0.731937,-0.875368,-0.934231,-0.942885,-0.948276,-0.924465,-0.936230,-0.936309,-0.928238,-0.931586,-0.930649,-0.931722,-0.938173,-0.946818,-0.947093,-0.915485,-0.919982,-0.935894,-0.948282,-0.941666,-0.939228,-0.939375,-0.938684,-0.934597,-0.925757,-0.924041
-0.918085,-0.928440,-0.935186,-0.938444,-0.929894,-0.825343,-0.759775,-0.875373,-0.937164,-0.945492,-0.952965,-0.927446,-0.936050,-0.944244,-0.937659,-0.939732,-0.935344,-0.937519,-0.943744,-0.953420,-0.951455,-0.925862,-0.931394,-0.940108,-0.955673,-0.947507,-0.948765,-0.944034,-0.943026,-0.938676,-0.930174,-0.927136
-0.926297,-0.929946,-0.937870,-0.937260,-0.932175,-0.827356,-0.758368,-0.871174,-0.942321,-0.947549,-0.956179,-0.920865,-0.939068,-0.943764,-0.936291,-0.945819,-0.936640,-0.938490,-0.947119,-0.952749,-0.953251,-0.927300,-0.928796,-0.940861,-0.960769,-0.952153,-0.950272,-0.946483,-0.943725,-0.941873,-0.931358,-0.934172
-0.926913,-0.932228,-0.937102,-0.941794,-0.934232,-0.824494,-0.759951,-0.881749,-0.941447,-0.949949,-0.956177,-0.928928,-0.941134,-0.943811,-0.936974,-0.946184,-0.937947,-0.937697,-0.946918,-0.952947,-0.952634,-0.927191,-0.928042,-0.943104,-0.958357,-0.952334,-0.950961,-0.947368,-0.946473,-0.940635,-0.932651,-0.928373
-0.925337,-0.930748,-0.936210,-0.939568,-0.932796,-0.799816,-0.736364,-0.877153,-0.940351,-0.947706,-0.954987,-0.920534,-0.939038,-0.941293,-0.940165,-0.948507,-0.937714,-0.935681,-0.945114,-0.951665,-0.950128,-0.921101,-0.927001,-0.939467,-0.958470,-0.951214,-0.950652,-0.946001,-0.943500,-0.937719,-0.932707,-0.932533
-0.925064,-0.928311,-0.934185,-0.935232,-0.926358,-0.817498,-0.752179,-0.875625,-0.939412,-0.944260,-0.954332,-0.917990,-0.934489,-0.938275,-0.936503,-0.947551,-0.937326,-0.934256,-0.944612,-0.948235,-0.947876,-0.918818,-0.920121,-0.939781,-0.956463,-0.951292,-0.948967,-0.945059,-0.938677,-0.938077,-0.931201,-0.925288
-0.919341,-0.921954,-0.929760,-0.929891,-0.923479,-0.819701,-0.747045,-0.870761,-0.922757,-0.925161,-0.944663,-0.918963,-0.929999,-0.934993,-0.928763,-0.940116,-0.926192,-0.930540,-0.939067,-0.945111,-0.944474,-0.918278,-0.917403,-0.931195,-0.948452,-0.939176,-0.933363,-0.936710,-0.933741,-0.933351,-0.928703,-0.926541
-0.897717,-0.903794,-0.904328,-0.910443,-0.893873,-0.715218,-0.591873,-0.799914,-0.934258,-0.943992,-0.944786,-0.895323,-0.919800,-0.930046,-0.931459,-0.941326,-0.926945,-0.913206,-0.929054,-0.931316,-0.930350,-0.886161,-0.897162,-0.898728,-0.940220,-0.938709,-0.931259,-0.924830,-0.927111,-0.920123,-0.915327,-0.922151
-0.919312,-0.921538,-0.924565,-0.931899,-0.919266,-0.801705,-0.720575,-0.858483,-0.940596,-0.944635,-0.953123,-0.914940,-0.931211,-0.938079,-0.935570,-0.941918,-0.933650,-0.929650,-0.933330,-0.947475,-0.944386,-0.912906,-0.918827,-0.932867,-0.950638,-0.947795,-0.947176,-0.942033,-0.940279,-0.934326,-0.930157,-0.928935
-0.901024,-0.909574,-0.913303,-0.912410,-0.912084,-0.791005,-0.712938,-0.847518,-0.933550,-0.936444,-0.932682,-0.906322,-0.922747,-0.926092,-0.909206,-0.923984,-0.911251,-0.915762,-0.918701,-0.929579,-0.930137,-0.902501,-0.902470,-0.920216,-0.934820,-0.925265,-0.924199,-0.923290,-0.925297,-0.922476,-0.905204,-0.916010
-0.872275,-0.882432,-0.894571,-0.901147,-0.893416,-0.796596,-0.716558,-0.847434,-0.909134,-0.915050,-0.917478,-0.906438,-0.903753,-0.899955,-0.887216,-0.889669,-0.884164,-0.896379,-0.902635,-0.913594,-0.911177,-0.889282,-0.898526,-0.910695,-0.925232,-0.915714,-0.910908,-0.919085,-0.899950,-0.897342,-0.877609,-0.875008
-0.880476,-0.885259,-0.904745,-0.902341,-0.895942,-0.792432,-0.713749,-0.838823,-0.917917,-0.910923,-0.930821,-0.900714,-0.906500,-0.906739,-0.894599,-0.899429,-0.891925,-0.898067,-0.913738,-0.920754,-0.917356,-0.890191,-0.898918,-0.911076,-0.926116,-0.918238,-0.918514,-0.915250,-0.903256,-0.900536,-0.886140,-0.894478
-0.918929,-0.924614,-0.929553,-0.933046,-0.924640,-0.800591,-0.715107,-0.868269,-0.946465,-0.944778,-0.952829,-0.916058,-0.935344,-0.941267,-0.935586,-0.943257,-0.938917,-0.927629,-0.937162,-0.940191,-0.939585,-0.909268,-0.910590,-0.932247,-0.952112,-0.951979,-0.945799,-0.941921,-0.938588,-0.932658,-0.927903,-0.927677
-0.924327,-0.932493,-0.934640,-0.934464,-0.930452,-0.815569,-0.744771,-0.874071,-0.944372,-0.944240,-0.947447,-0.928114,-0.936980,-0.947028,-0.937878,-0.947309,-0.942301,-0.936408,-0.946658,-0.944737,-0.947523,-0.919140,-0.922757,-0.936402,-0.956495,-0.955546,-0.949073,-0.948116,-0.942684,-0.940512,-0.931682,-0.931278
-0.926207,-0.932984,-0.937234,-0.937567,-0.931158,-0.813866,-0.738346,-0.867835,-0.946462,-0.948948,-0.950318,-0.927893,-0.940620,-0.947323,-0.935098,-0.951041,-0.942050,-0.938341,-0.947034,-0.948902,-0.949326,-0.918137,-0.924906,-0.934195,-0.955695,-0.953464,-0.950374,-0.948815,-0.943437,-0.939300,-0.933083,-0.930251
-0.923066,-0.930651,-0.932991,-0.935587,-0.930335,-0.811691,-0.737204,-0.873314,-0.941630,-0.948731,-0.952178,-0.922944,-0.939526,-0.944175,-0.938918,-0.947799,-0.939418,-0.937018,-0.944009,-0.938862,-0.944400,-0.920700,-0.920210,-0.936042,-0.956118,-0.955539,-0.949815,-0.947837,-0.940881,-0.937456,-0.931571,-0.927563
-0.924019,-0.929695,-0.934671,-0.934087,-0.931312,-0.819661,-0.738647,-0.868964,-0.943899,-0.946556,-0.942073,-0.925797,-0.938914,-0.942803,-0.939103,-0.946361,-0.937460,-0.934262,-0.945677,-0.943571,-0.943718,-0.920185,-0.920906,-0.934455,-0.955261,-0.953218,-0.943781,-0.948400,-0.938984,-0.934669,-0.931694,-0.931249
-0.917093,-0.925945,-0.929039,-0.931996,-0.927041,-0.815024,-0.750596,-0.875229,-0.933801,-0.940797,-0.946904,-0.926211,-0.933110,-0.938649,-0.930071,-0.941155,-0.930734,-0.929727,-0.940742,-0.943503,-0.942953,-0.912489,-0.916868,-0.933094,-0.950618,-0.951227,-0.947094,-0.942504,-0.937434,-0.934789,-0.925301,-0.927048
-0.913481,-0.921865,-0.928377,-0.932716,-0.920349,-0.821420,-0.748054,-0.875925,-0.929399,-0.939103,-0.942409,-0.925143,-0.936731,-0.937927,-0.934282,-0.937074,-0.935674,-0.932110,-0.942194,-0.945181,-0.942770,-0.913728,-0.919721,-0.931520,-0.942678,-0.942508,-0.943367,-0.934961,-0.938034,-0.933203,-0.924447,-0.922949
-0.914157,-0.921615,-0.926165,-0.928507,-0.925861,-0.810818,-0.731883,-0.870231,-0.941608,-0.942074,-0.943592,-0.922001,-0.933585,-0.937260,-0.933152,-0.937148,-0.931769,-0.927948,-0.941001,-0.943725,-0.942928,-0.912760,-0.919133,-0.928533,-0.950825,-0.947308,-0.941894,-0.943126,-0.936617,-0.933754,-0.926151,-0.923895
-0.914711,-0.923558,-0.927652,-0.930497,-0.925105,-0.804450,-0.717871,-0.874554,-0.942401,-0.945541,-0.947103,-0.920206,-0.935752,-0.939313,-0.933158,-0.942638,-0.931409,-0.930259,-0.941116,-0.943298,-0.944918,-0.910992,-0.918236,-0.932008,-0.950554,-0.946913,-0.944296,-0.944228,-0.938379,-0.933658,-0.927897,-0.925269
-0.912725,-0.915781,-0.924282,-0.926966,-0.916057,-0.810239,-0.730554,-0.866347,-0.948503,-0.942921,-0.946912,-0.917497,-0.930818,-0.934480,-0.932404,-0.940033,-0.931404,-0.924166,-0.936225,-0.941789,-0.944031,-0.909269,-0.909777,-0.926049,-0.944450,-0.942237,-0.938366,-0.936511,-0.932240,-0.928337,-0.920584,-0.921358
-0.904954,-0.912106,-0.916387,-0.920849,-0.919076,-0.808835,-0.730938,-0.866955,-0.934879,-0.938608,-0.930600,-0.916683,-0.925637,-0.920193,-0.923247,-0.923064,-0.920586,-0.922329,-0.928959,-0.932911,-0.932317,-0.906624,-0.907230,-0.921559,-0.934494,-0.935794,-0.928516,-0.930646,-0.922941,-0.924120,-0.916337,-0.920406
-0.887110,-0.889103,-0.892864,-0.904073,-0.901495,-0.777907,-0.686732,-0.854614,-0.926367,-0.919288,-0.923435,-0.899039,-0.908736,-0.914961,-0.894703,-0.895953,-0.895076,-0.897044,-0.914652,-0.913354,-0.914940,-0.885507,-0.890539,-0.903565,-0.916662,-0.918876,-0.916323,-0.910378,-0.908107,-0.902887,-0.882000,-0.889582
-0.886682,-0.891844,-0.900168,-0.904169,-0.901233,-0.810049,-0.729656,-0.852637,-0.914046,-0.913447,-0.914133,-0.904607,-0.912732,-0.910367,-0.900088,-0.903996,-0.895548,-0.904040,-0.916494,-0.921011,-0.918676,-0.895036,-0.896848,-0.904477,-0.927020,-0.920969,-0.923163,-0.923476,-0.915916,-0.907803,-0.896984,-0.885935
-0.921416,-0.917689,-0.923316,-0.918591,-0.918919,-0.812890,-0.734623,-0.875651,-0.930875,-0.936506,-0.938552,-0.910099,-0.925716,-0.935729,-0.931754,-0.932412,-0.923853,-0.916004,-0.939347,-0.927023,-0.931984,-0.909459,-0.918478,-0.923269,-0.940708,-0.944214,-0.942603,-0.938644,-0.922929,-0.925788,-0.916657,-0.925594
-0.925054,-0.926333,-0.932141,-0.935025,-0.931011,-0.825246,-0.749619,-0.883227,-0.946119,-0.945031,-0.951169,-0.926360,-0.939851,-0.943184,-0.935551,-0.943325,-0.938143,-0.931129,-0.945724,-0.942159,-0.944763,-0.920369,-0.924109,-0.935600,-0.952461,-0.951811,-0.949718,-0.949746,-0.940713,-0.938681,-0.933469,-0.932452
-0.917152,-0.924304,-0.926959,-0.930590,-0.927363,-0.825620,-0.752316,-0.880012,-0.941452,-0.941714,-0.952051,-0.925331,-0.935872,-0.939635,-0.937337,-0.937174,-0.935083,-0.927825,-0.947161,-0.939408,-0.944500,-0.918055,-0.919800,-0.934717,-0.949237,-0.947519,-0.947045,-0.946910,-0.939203,-0.929408,-0.930346,-0.924730
-0.923211,-0.926908,-0.931829,-0.932698,-0.926736,-0.825336,-0.742758,-0.870856,-0.947178,-0.940312,-0.950815,-0.928168,-0.939771,-0.944216,-0.934326,-0.937764,-0.929236,-0.930162,-0.948118,-0.940738,-0.946660,-0.915773,-0.926279,-0.935191,-0.951426,-0.949868,-0.951008,-0.950154,-0.939907,-0.938039,-0.928797,-0.927336
-0.925686,-0.928217,-0.933107,-0.934653,-0.929191,-0.830988,-0.746833,-0.879738,-0.944904,-0.942376,-0.952252,-0.931194,-0.942141,-0.944895,-0.936150,-0.944205,-0.936537,-0.932609,-0.948536,-0.944671,-0.946331,-0.921911,-0.928444,-0.937673,-0.953186,-0.950174,-0.950437,-0.948426,-0.942646,-0.942088,-0.932659,-0.933732
-0.918646,-0.920172,-0.924172,-0.930721,-0.924239,-0.787116,-0.681727,-0.858804,-0.941414,-0.938445,-0.952321,-0.925318,-0.933071,-0.941351,-0.932967,-0.938761,-0.931386,-0.928801,-0.945733,-0.940727,-0.940894,-0.913099,-0.919056,-0.930859,-0.944110,-0.946929,-0.946265,-0.944881,-0.937105,-0.934543,-0.927570,-0.927536
-0.917601,-0.917562,-0.923584,-0.928637,-0.923445,-0.811210,-0.724359,-0.868840,-0.942854,-0.937945,-0.952778,-0.923915,-0.936220,-0.942308,-0.929982,-0.934788,-0.932419,-0.924445,-0.939921,-0.938279,-0.941773,-0.913044,-0.918152,-0.931298,-0.950427,-0.948188,-0.945554,-0.944873,-0.938385,-0.937244,-0.928359,-0.931337
-0.921719,-0.923058,-0.929107,-0.933149,-0.926385,-0.813198,-0.725809,-0.868678,-0.946366,-0.940640,-0.951037,-0.925216,-0.938997,-0.946211,-0.934644,-0.940704,-0.933947,-0.931734,-0.945099,-0.942739,-0.944882,-0.915242,-0.921413,-0.933749,-0.952839,-0.949144,-0.947283,-0.949374,-0.940865,-0.939456,-0.928881,-0.933859
-0.921736,-0.923629,-0.929480,-0.928948,-0.926862,-0.808915,-0.716432,-0.869646,-0.944474,-0.939745,-0.950142,-0.922188,-0.939279,-0.945936,-0.933222,-0.941048,-0.934258,-0.930171,-0.943027,-0.939970,-0.944237,-0.909903,-0.920692,-0.933081,-0.951573,-0.950560,-0.950405,-0.949148,-0.940382,-0.939244,-0.930354,-0.931365
-0.923170,-0.924997,-0.930076,-0.932558,-0.928153,-0.813881,-0.729292,-0.871267,-0.945240,-0.931244,-0.952267,-0.924628,-0.935834,-0.944095,-0.934147,-0.941965,-0.934791,-0.930430,-0.944604,-0.940427,-0.945230,-0.913920,-0.922836,-0.934238,-0.953429,-0.951173,-0.950221,-0.948410,-0.941166,-0.938776,-0.931094,-0.933379
-0.922854,-0.925584,-0.933905,-0.936763,-0.933143,-0.837640,-0.762102,-0.879505,-0.940533,-0.936433,-0.948821,-0.923548,-0.936154,-0.941252,-0.928133,-0.932991,-0.934704,-0.931483,-0.945876,-0.946721,-0.946203,-0.922536,-0.925384,-0.938040,-0.945405,-0.944032,-0.943405,-0.945799,-0.940592,-0.937916,-0.926477,-0.931013
-0.913603,-0.917988,-0.925241,-0.928149,-0.924607,-0.841290,-0.766113,-0.881308,-0.929393,-0.930063,-0.932522,-0.918281,-0.926388,-0.929455,-0.905657,-0.919268,-0.920238,-0.923438,-0.935490,-0.932257,-0.932755,-0.915974,-0.918773,-0.928360,-0.935334,-0.934534,-0.934908,-0.937314,-0.929983,-0.924784,-0.914008,-0.912879
-0.886111,-0.885353,-0.899536,-0.900063,-0.897351,-0.835411,-0.764663,-0.869594,-0.914463,-0.903988,-0.918148,-0.913260,-0.901287,-0.903692,-0.884057,-0.898003,-0.889702,-0.892436,-0.911554,-0.913258,-0.912458,-0.890398,-0.899593,-0.907854,-0.913293,-0.906566,-0.906136,-0.912031,-0.903213,-0.903682,-0.879451,-0.878764
-0.922850,-0.916715,-0.922733,-0.922482,-0.925328,-0.837086,-0.765245,-0.886141,-0.936338,-0.934452,-0.948913,-0.918104,-0.935095,-0.945410,-0.920580,-0.926545,-0.927939,-0.918590,-0.941187,-0.938467,-0.938831,-0.914497,-0.919481,-0.934197,-0.936380,-0.944165,-0.938259,-0.939405,-0.934383,-0.932085,-0.922269,-0.925474
-0.930151,-0.933795,-0.937988,-0.940679,-0.935883,-0.842883,-0.771078,-0.888065,-0.939063,-0.932526,-0.949876,-0.923582,-0.944913,-0.947862,-0.939083,-0.939270,-0.935332,-0.934337,-0.946852,-0.945077,-0.946906,-0.920963,-0.926176,-0.941212,-0.946221,-0.950850,-0.948765,-0.945456,-0.944464,-0.943939,-0.934005,-0.939813
-0.930260,-0.934653,-0.939582,-0.941243,-0.938290,-0.847489,-0.768225,-0.891645,-0.945613,-0.945363,-0.953304,-0.931517,-0.945704,-0.951920,-0.929500,-0.938595,-0.940389,-0.939224,-0.954490,-0.951301,-0.950449,-0.927695,-0.934137,-0.942838,-0.946115,-0.950109,-0.947518,-0.951211,-0.945514,-0.946301,-0.933567,-0.937044
-0.929718,-0.929256,-0.935184,-0.931922,-0.938899,-0.846697,-0.773058,-0.890282,-0.939112,-0.940944,-0.948729,-0.928918,-0.941369,-0.949723,-0.931725,-0.943251,-0.943158,-0.936036,-0.952751,-0.949845,-0.950611,-0.925635,-0.930081,-0.942309,-0.949429,-0.955758,-0.951726,-0.945670,-0.945524,-0.946958,-0.933733,-0.935334
-0.928052,-0.926184,-0.929710,-0.933154,-0.931632,-0.827980,-0.744239,-0.883508,-0.937948,-0.941152,-0.950047,-0.924212,-0.940984,-0.948354,-0.936533,-0.943121,-0.938109,-0.932757,-0.946815,-0.946893,-0.945929,-0.917719,-0.925462,-0.936566,-0.949160,-0.951190,-0.949159,-0.945061,-0.942828,-0.943624,-0.934995,-0.937728
-0.928934,-0.929304,-0.932970,-0.935176,-0.933892,-0.819799,-0.739630,-0.883737,-0.941288,-0.940736,-0.952745,-0.919224,-0.940960,-0.949561,-0.935377,-0.945808,-0.942835,-0.933356,-0.951894,-0.947713,-0.948286,-0.917114,-0.924877,-0.936642,-0.945892,-0.948851,-0.946083,-0.943720,-0.944886,-0.944099,-0.936876,-0.938938
-0.927178,-0.922834,-0.923252,-0.932207,-0.924045,-0.822552,-0.742622,-0.878519,-0.937327,-0.936720,-0.947780,-0.913196,-0.936725,-0.945814,-0.935717,-0.942886,-0.944011,-0.926627,-0.949021,-0.938915,-0.938024,-0.906619,-0.911694,-0.933444,-0.940492,-0.943785,-0.939501,-0.935996,-0.937947,-0.936434,-0.933144,-0.936139
-0.930150,-0.929225,-0.932934,-0.934206,-0.934225,-0.831761,-0.748391,-0.884158,-0.942501,-0.940116,-0.948285,-0.922125,-0.939936,-0.948605,-0.935719,-0.943475,-0.942412,-0.933159,-0.950265,-0.944890,-0.944387,-0.916506,-0.926394,-0.936557,-0.950771,-0.950586,-0.950157,-0.945790,-0.944155,-0.943626,-0.938187,-0.936824
-0.928050,-0.928744,-0.930648,-0.931286,-0.932677,-0.822289,-0.737120,-0.877636,-0.940717,-0.940916,-0.948296,-0.917461,-0.938841,-0.944992,-0.934594,-0.943807,-0.942701,-0.932706,-0.949239,-0.942323,-0.943818,-0.914503,-0.922864,-0.931702,-0.949052,-0.949566,-0.948049,-0.943495,-0.941884,-0.937531,-0.936328,-0.935622
-0.934429,-0.933948,-0.935858,-0.936307,-0.934722,-0.846195,-0.770914,-0.885204,-0.942650,-0.938949,-0.953726,-0.930137,-0.942019,-0.950566,-0.934037,-0.942982,-0.940982,-0.936413,-0.951697,-0.949137,-0.951003,-0.923030,-0.928253,-0.934930,-0.948034,-0.948628,-0.949886,-0.945084,-0.942893,-0.940614,-0.938674,-0.935931
-0.925679,-0.930539,-0.931293,-0.932709,-0.933010,-0.836670,-0.765821,-0.884801,-0.939450,-0.941333,-0.946021,-0.927639,-0.938565,-0.941714,-0.932220,-0.939680,-0.943149,-0.932882,-0.946943,-0.946805,-0.946432,-0.923018,-0.927577,-0.933874,-0.946439,-0.942727,-0.947155,-0.946612,-0.940021,-0.942285,-0.933818,-0.928426
-0.921987,-0.920229,-0.925812,-0.926434,-0.929052,-0.840865,-0.763744,-0.877936,-0.926770,-0.925218,-0.936708,-0.916278,-0.918270,-0.932047,-0.917650,-0.928056,-0.920726,-0.924669,-0.941675,-0.934325,-0.941644,-0.919542,-0.916383,-0.929863,-0.929129,-0.933551,-0.933394,-0.937827,-0.930777,-0.937300,-0.926557,-0.926892
-0.902424,-0.900839,-0.912302,-0.907329,-0.919438,-0.846043,-0.759130,-0.875871,-0.916766,-0.912267,-0.928354,-0.920734,-0.924799,-0.920651,-0.896837,-0.903537,-0.901186,-0.910980,-0.921430,-0.923545,-0.932028,-0.918333,-0.914272,-0.916055,-0.915771,-0.924334,-0.919367,-0.926309,-0.921339,-0.916115,-0.905797,-0.906184
-0.935586,-0.940475,-0.944474,-0.945534,-0.944317,-0.832625,-0.747865,-0.876446,-0.950690,-0.951207,-0.956203,-0.935447,-0.950951,-0.957733,-0.940338,-0.953988,-0.951258,-0.948105,-0.960047,-0.961854,-0.959609,-0.934336,-0.942141,-0.948569,-0.957939,-0.955465,-0.951110,-0.952678,-0.952665,-0.954486,-0.948103,-0.945846
-0.942250,-0.945694,-0.944305,-0.948417,-0.945084,-0.842361,-0.769753,-0.886045,-0.951130,-0.950027,-0.959077,-0.933856,-0.947862,-0.958655,-0.953428,-0.959868,-0.957594,-0.945477,-0.961424,-0.960190,-0.957848,-0.933520,-0.939594,-0.947364,-0.962260,-0.961558,-0.955836,-0.952334,-0.954290,-0.953969,-0.953511,-0.951937
-0.927150,-0.932229,-0.932281,-0.929680,-0.933183,-0.822104,-0.736061,-0.872016,-0.945229,-0.948335,-0.945259,-0.917270,-0.934630,-0.948949,-0.946639,-0.949122,-0.944988,-0.932364,-0.950359,-0.949865,-0.948554,-0.920076,-0.926986,-0.936354,-0.946650,-0.949312,-0.942407,-0.945768,-0.944085,-0.943243,-0.937872,-0.940050
-0.928279,-0.931996,-0.933990,-0.934453,-0.930248,-0.792289,-0.702806,-0.859288,-0.949184,-0.948420,-0.951237,-0.911562,-0.940495,-0.949344,-0.951373,-0.953107,-0.949798,-0.934936,-0.952837,-0.948558,-0.947656,-0.918463,-0.924882,-0.935018,-0.953614,-0.953779,-0.946412,-0.945285,-0.945721,-0.942750,-0.942240,-0.942370
-0.930525,-0.935024,-0.931635,-0.935526,-0.935278,-0.819182,-0.744056,-0.876046,-0.947022,-0.944765,-0.945491,-0.920548,-0.937482,-0.949024,-0.948460,-0.952789,-0.948601,-0.934334,-0.953195,-0.949460,-0.949405,-0.918876,-0.927747,-0.938651,-0.951727,-0.952991,-0.946612,-0.944506,-0.943967,-0.942590,-0.941234,-0.942411
-0.932631,-0.932502,-0.936818,-0.934132,-0.938208,-0.822175,-0.741183,-0.877398,-0.935003,-0.936582,-0.945431,-0.924804,-0.936105,-0.949013,-0.947795,-0.947556,-0.946588,-0.932498,-0.951730,-0.947370,-0.942373,-0.920043,-0.924922,-0.937010,-0.945946,-0.950414,-0.943291,-0.943976,-0.943986,-0.944092,-0.940924,-0.938363
-0.924282,-0.931009,-0.929571,-0.928871,-0.928329,-0.816684,-0.743066,-0.876840,-0.938393,-0.937738,-0.945963,-0.924163,-0.934592,-0.946456,-0.938100,-0.944147,-0.942214,-0.928298,-0.949805,-0.943711,-0.941605,-0.919121,-0.926131,-0.936412,-0.945913,-0.947436,-0.937551,-0.938599,-0.938680,-0.940031,-0.937859,-0.936813
-0.928465,-0.938320,-0.938472,-0.936419,-0.936178,-0.815114,-0.731039,-0.872086,-0.941332,-0.945232,-0.944285,-0.925327,-0.938953,-0.948438,-0.946343,-0.950920,-0.943844,-0.937757,-0.952975,-0.951805,-0.949491,-0.927829,-0.932954,-0.942455,-0.951018,-0.948110,-0.943499,-0.943655,-0.943534,-0.942954,-0.942654,-0.939927
-0.932994,-0.930983,-0.930329,-0.930180,-0.934407,-0.828319,-0.763699,-0.879433,-0.932052,-0.942487,-0.948139,-0.924358,-0.939078,-0.940920,-0.949355,-0.938377,-0.934430,-0.928009,-0.945723,-0.951890,-0.943565,-0.927633,-0.930636,-0.936527,-0.952129,-0.948573,-0.945569,-0.940034,-0.938279,-0.938234,-0.936800,-0.935149
-0.936402,-0.935460,-0.941404,-0.936543,-0.940304,-0.834228,-0.759701,-0.889829,-0.939692,-0.946096,-0.948627,-0.931339,-0.944075,-0.949107,-0.945688,-0.947072,-0.948009,-0.937855,-0.952577,-0.953110,-0.951790,-0.929811,-0.937102,-0.944666,-0.950409,-0.955331,-0.950964,-0.948243,-0.948377,-0.943278,-0.943998,-0.941590
-0.942215,-0.943284,-0.946030,-0.943077,-0.943594,-0.838195,-0.768945,-0.891099,-0.947255,-0.949869,-0.952575,-0.932493,-0.948227,-0.952474,-0.956671,-0.954384,-0.956394,-0.945823,-0.958996,-0.957800,-0.958912,-0.934387,-0.938923,-0.945283,-0.958698,-0.961675,-0.955220,-0.952872,-0.948661,-0.949323,-0.951542,-0.949613
-0.929435,-0.934546,-0.934180,-0.932722,-0.936561,-0.837455,-0.767846,-0.877182,-0.931659,-0.927843,-0.947447,-0.934777,-0.934609,-0.942742,-0.945534,-0.944508,-0.942478,-0.938432,-0.958288,-0.953555,-0.950333,-0.931073,-0.931867,-0.939286,-0.953546,-0.951422,-0.945359,-0.942292,-0.936059,-0.944274,-0.942513,-0.938105
-0.889675,-0.887018,-0.909571,-0.900170,-0.902613,-0.830913,-0.768485,-0.869833,-0.885068,-0.887660,-0.917106,-0.892462,-0.895393,-0.892790,-0.877797,-0.884023,-0.883734,-0.890885,-0.901557,-0.919048,-0.915694,-0.902748,-0.904115,-0.910533,-0.896941,-0.907687,-0.903001,-0.902191,-0.902418,-0.898230,-0.868914,-0.882634
-0.931481,-0.936451,-0.935514,-0.934594,-0.934559,-0.805026,-0.728106,-0.876965,-0.940826,-0.942397,-0.957943,-0.917712,-0.939296,-0.947543,-0.954744,-0.955270,-0.946384,-0.929186,-0.949267,-0.948728,-0.950622,-0.920110,-0.927260,-0.940087,-0.956953,-0.957200,-0.948366,-0.948157,-0.948312,-0.941063,-0.939051,-0.945316
-0.927002,-0.931216,-0.934026,-0.930654,-0.932529,-0.788319,-0.721319,-0.867817,-0.946791,-0.945402,-0.953207,-0.906882,-0.942768,-0.948706,-0.956992,-0.959825,-0.947746,-0.930696,-0.950521,-0.936763,-0.946774,-0.912002,-0.924227,-0.937724,-0.955072,-0.958136,-0.949303,-0.946712,-0.946303,-0.944056,-0.942632,-0.943364
-0.930813,-0.938141,-0.939946,-0.937624,-0.936784,-0.817148,-0.745950,-0.882645,-0.943243,-0.940526,-0.956376,-0.913747,-0.943359,-0.946858,-0.952591,-0.954090,-0.944589,-0.937004,-0.954935,-0.939926,-0.950876,-0.920527,-0.931216,-0.943324,-0.952045,-0.957877,-0.948396,-0.951451,-0.949763,-0.942492,-0.940659,-0.940349
-0.932553,-0.938218,-0.940863,-0.938200,-0.938210,-0.817793,-0.748757,-0.883747,-0.940453,-0.928021,-0.955460,-0.918303,-0.938930,-0.943443,-0.954106,-0.952870,-0.945671,-0.936926,-0.952294,-0.945275,-0.950656,-0.923714,-0.931165,-0.943412,-0.955023,-0.957362,-0.946896,-0.950003,-0.949156,-0.946152,-0.935600,-0.940874
-0.926717,-0.931249,-0.933006,-0.929069,-0.923866,-0.811946,-0.743535,-0.880109,-0.939897,-0.939155,-0.946355,-0.914208,-0.934243,-0.940426,-0.943667,-0.950305,-0.943120,-0.932976,-0.946994,-0.942182,-0.945461,-0.915032,-0.924471,-0.932680,-0.947227,-0.950779,-0.942632,-0.945969,-0.939541,-0.942474,-0.930151,-0.935876
-0.895486,-0.894160,-0.900801,-0.890966,-0.897893,-0.723437,-0.633029,-0.808543,-0.932660,-0.912802,-0.925538,-0.870627,-0.910913,-0.918388,-0.937317,-0.943522,-0.923896,-0.902652,-0.930051,-0.920509,-0.927625,-0.868585,-0.885768,-0.904383,-0.929199,-0.933094,-0.917383,-0.916606,-0.910038,-0.922800,-0.919208,-0.926369
-0.931011,-0.932541,-0.936746,-0.935162,-0.931622,-0.825727,-0.764106,-0.879070,-0.935332,-0.919933,-0.950181,-0.919863,-0.929526,-0.936218,-0.937212,-0.944607,-0.939728,-0.933746,-0.950543,-0.943368,-0.945484,-0.927505,-0.930113,-0.941305,-0.953805,-0.948282,-0.943646,-0.940072,-0.940330,-0.939475,-0.930382,-0.938356
-0.928392,-0.938022,-0.942528,-0.937140,-0.932242,-0.822279,-0.758330,-0.878256,-0.926526,-0.933858,-0.947095,-0.920235,-0.938403,-0.935341,-0.940606,-0.940837,-0.938511,-0.939877,-0.957017,-0.946647,-0.953855,-0.928775,-0.935328,-0.941381,-0.952285,-0.958566,-0.948298,-0.942659,-0.950336,-0.948403,-0.939429,-0.933194
-0.937253,-0.941762,-0.945208,-0.944347,-0.939741,-0.810046,-0.730519,-0.872948,-0.934067,-0.940694,-0.958205,-0.921944,-0.946207,-0.945283,-0.952852,-0.954199,-0.947211,-0.941967,-0.960809,-0.948360,-0.956185,-0.930480,-0.935564,-0.945637,-0.958563,-0.963630,-0.954762,-0.955469,-0.954491,-0.949271,-0.941403,-0.944074
-0.937722,-0.942393,-0.945246,-0.944394,-0.941113,-0.818364,-0.749884,-0.882280,-0.940151,-0.946190,-0.959603,-0.921960,-0.945469,-0.948763,-0.948368,-0.949585,-0.949043,-0.941979,-0.957237,-0.947547,-0.956466,-0.928210,-0.936031,-0.947068,-0.959083,-0.961056,-0.952305,-0.955117,-0.954664,-0.950111,-0.941263,-0.944421
-0.938095,-0.942877,-0.946822,-0.943355,-0.938577,-0.820716,-0.754259,-0.878327,-0.942207,-0.945410,-0.958449,-0.917342,-0.943778,-0.947544,-0.952056,-0.953841,-0.949827,-0.941232,-0.958606,-0.946051,-0.954862,-0.927061,-0.933025,-0.941879,-0.958025,-0.959807,-0.953381,-0.952359,-0.954486,-0.947616,-0.941167,-0.944944
-0.934598,-0.938689,-0.943762,-0.939611,-0.935637,-0.823836,-0.750267,-0.877355,-0.935143,-0.935706,-0.956256,-0.916772,-0.942283,-0.941031,-0.950320,-0.949935,-0.942784,-0.937754,-0.955237,-0.943005,-0.953069,-0.922189,-0.930588,-0.944340,-0.952535,-0.952246,-0.949429,-0.949490,-0.950710,-0.946586,-0.938377,-0.939066
-0.910976,-0.927557,-0.933919,-0.930900,-0.926506,-0.796717,-0.727664,-0.861527,-0.913134,-0.925741,-0.940128,-0.913121,-0.919181,-0.928796,-0.917960,-0.928826,-0.920341,-0.922899,-0.941216,-0.934283,-0.943797,-0.914692,-0.921058,-0.930564,-0.947321,-0.939265,-0.934531,-0.939237,-0.934320,-0.925608,-0.922694,-0.919266
-0.924823,-0.928156,-0.930276,-0.934525,-0.926516,-0.793750,-0.706086,-0.870908,-0.935504,-0.935691,-0.952534,-0.911666,-0.937204,-0.940236,-0.937357,-0.945491,-0.936611,-0.926809,-0.934039,-0.934657,-0.946358,-0.916183,-0.917096,-0.935963,-0.954221,-0.953707,-0.945825,-0.945519,-0.945059,-0.937057,-0.935522,-0.932091
-0.922256,-0.923252,-0.927481,-0.924452,-0.927939,-0.803768,-0.722248,-0.873766,-0.916296,-0.928244,-0.934507,-0.902472,-0.921182,-0.928491,-0.938278,-0.946946,-0.934434,-0.922592,-0.938627,-0.931314,-0.944577,-0.917255,-0.913597,-0.936262,-0.946389,-0.944386,-0.942123,-0.944489,-0.937791,-0.932183,-0.931428,-0.935358
-0.925654,-0.928833,-0.933929,-0.935988,-0.932701,-0.812444,-0.740079,-0.874697,-0.929900,-0.918697,-0.947007,-0.911328,-0.927210,-0.934598,-0.937376,-0.943778,-0.937932,-0.931292,-0.942347,-0.940896,-0.950615,-0.924608,-0.928353,-0.942178,-0.959103,-0.954034,-0.949980,-0.948718,-0.944981,-0.943290,-0.936903,-0.943435
-0.927356,-0.934682,-0.930748,-0.931904,-0.932706,-0.814922,-0.744995,-0.879187,-0.925515,-0.932032,-0.947579,-0.916886,-0.930380,-0.942026,-0.923070,-0.943609,-0.935766,-0.934929,-0.939873,-0.939778,-0.949496,-0.922554,-0.926599,-0.937029,-0.951044,-0.950480,-0.945359,-0.949798,-0.945145,-0.940849,-0.934630,-0.938029
-0.938601,-0.940776,-0.940578,-0.940233,-0.944049,-0.833545,-0.771366,-0.892108,-0.933821,-0.934958,-0.953905,-0.924682,-0.940159,-0.944331,-0.945474,-0.947399,-0.941251,-0.939590,-0.954108,-0.948080,-0.955026,-0.934057,-0.937555,-0.949194,-0.959735,-0.958864,-0.946163,-0.955903,-0.953466,-0.945787,-0.939774,-0.942152
-0.942208,-0.942931,-0.949101,-0.949871,-0.944839,-0.829577,-0.770426,-0.891748,-0.929765,-0.933037,-0.958471,-0.914317,-0.940824,-0.946736,-0.947031,-0.950728,-0.949354,-0.944122,-0.953382,-0.949011,-0.955819,-0.934300,-0.938796,-0.946977,-0.963956,-0.957960,-0.954641,-0.953825,-0.956220,-0.948728,-0.944008,-0.949777
-0.939201,-0.941568,-0.947330,-0.949543,-0.940391,-0.827583,-0.762744,-0.893408,-0.923098,-0.932155,-0.953731,-0.920608,-0.933332,-0.939991,-0.940886,-0.948073,-0.948909,-0.938738,-0.954256,-0.948295,-0.954677,-0.931303,-0.935463,-0.945381,-0.960104,-0.955066,-0.947345,-0.952715,-0.954839,-0.944964,-0.942850,-0.950200
-0.941600,-0.945504,-0.948775,-0.948704,-0.945068,-0.833891,-0.768414,-0.897143,-0.930548,-0.935242,-0.952865,-0.921902,-0.938416,-0.944508,-0.944171,-0.954469,-0.948193,-0.941146,-0.953811,-0.946402,-0.953488,-0.932035,-0.935943,-0.942996,-0.962292,-0.958903,-0.949763,-0.954573,-0.955778,-0.948716,-0.944035,-0.947781
-0.940821,-0.945073,-0.948655,-0.948789,-0.943625,-0.835466,-0.773062,-0.895143,-0.936022,-0.942182,-0.955169,-0.922191,-0.939607,-0.946344,-0.945614,-0.954120,-0.949947,-0.943568,-0.952890,-0.944808,-0.956457,-0.933770,-0.937860,-0.948298,-0.967468,-0.962205,-0.954969,-0.953985,-0.955000,-0.947563,-0.946745,-0.948799
-0.936116,-0.939901,-0.943450,-0.943814,-0.939921,-0.835716,-0.773026,-0.893007,-0.933716,-0.940392,-0.951832,-0.921001,-0.939745,-0.943904,-0.945410,-0.954004,-0.946461,-0.940057,-0.951733,-0.945297,-0.952669,-0.932013,-0.935823,-0.947056,-0.966225,-0.958922,-0.953964,-0.952566,-0.955083,-0.942975,-0.942578,-0.944686
-0.927964,-0.923105,-0.934842,-0.931029,-0.923422,-0.816099,-0.755743,-0.882579,-0.924964,-0.932603,-0.947516,-0.914275,-0.932415,-0.934247,-0.937581,-0.941106,-0.931114,-0.927296,-0.933817,-0.931240,-0.946249,-0.919443,-0.922161,-0.935838,-0.955049,-0.953902,-0.946748,-0.943694,-0.948654,-0.932582,-0.932149,-0.930565
-0.921156,-0.922297,-0.925415,-0.929416,-0.923319,-0.807731,-0.743403,-0.870998,-0.923034,-0.921275,-0.921662,-0.905028,-0.918077,-0.925332,-0.928830,-0.936439,-0.924977,-0.926763,-0.930120,-0.923630,-0.940028,-0.908342,-0.911302,-0.926017,-0.946386,-0.937581,-0.939130,-0.939480,-0.935208,-0.922293,-0.927530,-0.922447
-0.914759,-0.929042,-0.929829,-0.929570,-0.926310,-0.809119,-0.740466,-0.872987,-0.924274,-0.921675,-0.937832,-0.912360,-0.926240,-0.928716,-0.933291,-0.934737,-0.931212,-0.932383,-0.942329,-0.932164,-0.939288,-0.919082,-0.922009,-0.931013,-0.948063,-0.945891,-0.939293,-0.941435,-0.938023,-0.932449,-0.930730,-0.933639
-0.908744,-0.917390,-0.914289,-0.921255,-0.913276,-0.803815,-0.730145,-0.867308,-0.911457,-0.910997,-0.933838,-0.901567,-0.912980,-0.914050,-0.921434,-0.921759,-0.914416,-0.920739,-0.929282,-0.926925,-0.932907,-0.910203,-0.903089,-0.923095,-0.934651,-0.933439,-0.931517,-0.930696,-0.924512,-0.919699,-0.916797,-0.920911
-0.922724,-0.926041,-0.932830,-0.930799,-0.925931,-0.815251,-0.738029,-0.876196,-0.919399,-0.921123,-0.935808,-0.910949,-0.917000,-0.932466,-0.926782,-0.938101,-0.936288,-0.927434,-0.935314,-0.943934,-0.943644,-0.918866,-0.920320,-0.931128,-0.945812,-0.943781,-0.946475,-0.940688,-0.936680,-0.934501,-0.928780,-0.929895
-0.941132,-0.939836,-0.948915,-0.948149,-0.939533,-0.828247,-0.756560,-0.882478,-0.936949,-0.942323,-0.945151,-0.922611,-0.937913,-0.951942,-0.953873,-0.960418,-0.958223,-0.943861,-0.954367,-0.954313,-0.953942,-0.930303,-0.930595,-0.941743,-0.960571,-0.961671,-0.957076,-0.951762,-0.949847,-0.948704,-0.948504,-0.952309
-0.938319,-0.936145,-0.945471,-0.945373,-0.937324,-0.802565,-0.732204,-0.861254,-0.935986,-0.940356,-0.947491,-0.925534,-0.937098,-0.947818,-0.955338,-0.959910,-0.955252,-0.942740,-0.952014,-0.953187,-0.950830,-0.928977,-0.929560,-0.941719,-0.959822,-0.959305,-0.953112,-0.945329,-0.956012,-0.946288,-0.946957,-0.949437
-0.946035,-0.944581,-0.950194,-0.952368,-0.945016,-0.826508,-0.758066,-0.885920,-0.933949,-0.941021,-0.947900,-0.928614,-0.938053,-0.951408,-0.953793,-0.961966,-0.957253,-0.947848,-0.956395,-0.955309,-0.953616,-0.933135,-0.932348,-0.945841,-0.965573,-0.960118,-0.958237,-0.954646,-0.957172,-0.948237,-0.953537,-0.950231
-0.945013,-0.943850,-0.949557,-0.951158,-0.944190,-0.817838,-0.750458,-0.883201,-0.937784,-0.941706,-0.944929,-0.924679,-0.938821,-0.951654,-0.951913,-0.962120,-0.959651,-0.946083,-0.956223,-0.954289,-0.953197,-0.931366,-0.932117,-0.944660,-0.963867,-0.961521,-0.958275,-0.953803,-0.954466,-0.946418,-0.952545,-0.951894
-0.942994,-0.941446,-0.947506,-0.949636,-0.942638,-0.824334,-0.756279,-0.881827,-0.936778,-0.942230,-0.945260,-0.925723,-0.938506,-0.948811,-0.952924,-0.961017,-0.957122,-0.944395,-0.955763,-0.950316,-0.951454,-0.930828,-0.928017,-0.943121,-0.963841,-0.959896,-0.957709,-0.951997,-0.954141,-0.944657,-0.950584,-0.949062
-0.935992,-0.935054,-0.941721,-0.944582,-0.938429,-0.823300,-0.754166,-0.881477,-0.914891,-0.918178,-0.931045,-0.918195,-0.926030,-0.937456,-0.935709,-0.950701,-0.950477,-0.937724,-0.946684,-0.947977,-0.946247,-0.927685,-0.922967,-0.935488,-0.957685,-0.944688,-0.946780,-0.940534,-0.940938,-0.938041,-0.944606,-0.937578
-0.899540,-0.894790,-0.908483,-0.908881,-0.897186,-0.649354,-0.516322,-0.780566,-0.925806,-0.920466,-0.922980,-0.873684,-0.903994,-0.926000,-0.952336,-0.949829,-0.934776,-0.911694,-0.928648,-0.929386,-0.914359,-0.857629,-0.854589,-0.897053,-0.940415,-0.943025,-0.927763,-0.920322,-0.926263,-0.917803,-0.932765,-0.930620
-0.927766,-0.933771,-0.932628,-0.934413,-0.939016,-0.800191,-0.713053,-0.860178,-0.934586,-0.936698,-0.934748,-0.916789,-0.931707,-0.942607,-0.941106,-0.950849,-0.947194,-0.936800,-0.944436,-0.945520,-0.943690,-0.917913,-0.916876,-0.927404,-0.953616,-0.951944,-0.949198,-0.946282,-0.940238,-0.941040,-0.938969,-0.937301
-0.926503,-0.929620,-0.940948,-0.935110,-0.937058,-0.803813,-0.720143,-0.864783,-0.915676,-0.927008,-0.933978,-0.919182,-0.924853,-0.936721,-0.940398,-0.944779,-0.936247,-0.937823,-0.944467,-0.946496,-0.936282,-0.925079,-0.920301,-0.937595,-0.951229,-0.946887,-0.944596,-0.942806,-0.943241,-0.939305,-0.935793,-0.933662
-0.910617,-0.919716,-0.933407,-0.933154,-0.925069,-0.808467,-0.732530,-0.872623,-0.910204,-0.921782,-0.934601,-0.908142,-0.920656,-0.927880,-0.933463,-0.926720,-0.919629,-0.928229,-0.934465,-0.945779,-0.938664,-0.919463,-0.907519,-0.934731,-0.939850,-0.936743,-0.940516,-0.932182,-0.936004,-0.934960,-0.927600,-0.926303
-0.931957,-0.935141,-0.942124,-0.942436,-0.937601,-0.803646,-0.727138,-0.876544,-0.931914,-0.935103,-0.943313,-0.912416,-0.933194,-0.942028,-0.951584,-0.952377,-0.949617,-0.939826,-0.944452,-0.952452,-0.945816,-0.924428,-0.921356,-0.941140,-0.956987,-0.956131,-0.952506,-0.946378,-0.949344,-0.943047,-0.943996,-0.942669
-0.914723,-0.917023,-0.927957,-0.920759,-0.922631,-0.788394,-0.709425,-0.869146,-0.911009,-0.917479,-0.930984,-0.896580,-0.913222,-0.923328,-0.938135,-0.933552,-0.930278,-0.924096,-0.928047,-0.931170,-0.935862,-0.909624,-0.904023,-0.927000,-0.943512,-0.937762,-0.934252,-0.930912,-0.931906,-0.920660,-0.927747,-0.925051
-0.928999,-0.932326,-0.941534,-0.939781,-0.934299,-0.814929,-0.744917,-0.882093,-0.929756,-0.930125,-0.944630,-0.909903,-0.931583,-0.940594,-0.947930,-0.948720,-0.943495,-0.940335,-0.945993,-0.952094,-0.941653,-0.923400,-0.920613,-0.941483,-0.952687,-0.952118,-0.953200,-0.945516,-0.946786,-0.939075,-0.942410,-0.942558
-0.931353,-0.935950,-0.941078,-0.939412,-0.933792,-0.818118,-0.747361,-0.885010,-0.926547,-0.927477,-0.944958,-0.906771,-0.928142,-0.941406,-0.951446,-0.949765,-0.946549,-0.940723,-0.944985,-0.949932,-0.941405,-0.924382,-0.921796,-0.941826,-0.952888,-0.952806,-0.952023,-0.943562,-0.945561,-0.939416,-0.942307,-0.940888
-0.926217,-0.931724,-0.934909,-0.935488,-0.934249,-0.805908,-0.735440,-0.878312,-0.928095,-0.930200,-0.946386,-0.905652,-0.928994,-0.941289,-0.945021,-0.949710,-0.940981,-0.935682,-0.941367,-0.945927,-0.937527,-0.915062,-0.916017,-0.936760,-0.948222,-0.948169,-0.952555,-0.943188,-0.942229,-0.934705,-0.941646,-0.939827
-0.923725,-0.931235,-0.937881,-0.935050,-0.933518,-0.816322,-0.744081,-0.879897,-0.921412,-0.925180,-0.941190,-0.914728,-0.929949,-0.939560,-0.940028,-0.947320,-0.940803,-0.934126,-0.943305,-0.948434,-0.941069,-0.923116,-0.920857,-0.938859,-0.950235,-0.948171,-0.949699,-0.942953,-0.945251,-0.937213,-0.942201,-0.939745
-0.918922,-0.928657,-0.929098,-0.922883,-0.925197,-0.810971,-0.742934,-0.878206,-0.914592,-0.913403,-0.933746,-0.898042,-0.914759,-0.934258,-0.929987,-0.932847,-0.937035,-0.932813,-0.940105,-0.939300,-0.937041,-0.915661,-0.913580,-0.925326,-0.943572,-0.942182,-0.941554,-0.935482,-0.937295,-0.930188,-0.929041,-0.926256
-0.926489,-0.922593,-0.935090,-0.930962,-0.928592,-0.819800,-0.745557,-0.881832,-0.924469,-0.922807,-0.938212,-0.908736,-0.925978,-0.938906,-0.938919,-0.935805,-0.934287,-0.934660,-0.935283,-0.943883,-0.935864,-0.918821,-0.917433,-0.934893,-0.943825,-0.946527,-0.946455,-0.938999,-0.938306,-0.934684,-0.931712,-0.935328
-0.913460,-0.916545,-0.925220,-0.923862,-0.917047,-0.797713,-0.724382,-0.865341,-0.914164,-0.904606,-0.920408,-0.897614,-0.908271,-0.922645,-0.930083,-0.935774,-0.922280,-0.922662,-0.930880,-0.938670,-0.927892,-0.907165,-0.909864,-0.928677,-0.938201,-0.939274,-0.931629,-0.930931,-0.929564,-0.923381,-0.927723,-0.931639
-0.914849,-0.921185,-0.929042,-0.928987,-0.924956,-0.804160,-0.728271,-0.875241,-0.926590,-0.929832,-0.947106,-0.908580,-0.922593,-0.935021,-0.938741,-0.941028,-0.933186,-0.935240,-0.940556,-0.943692,-0.934956,-0.913111,-0.917309,-0.930075,-0.939705,-0.941385,-0.940801,-0.936166,-0.939264,-0.929756,-0.932200,-0.937160
-0.925030,-0.928274,-0.936048,-0.934733,-0.931639,-0.802694,-0.725492,-0.867532,-0.933758,-0.931405,-0.946833,-0.908035,-0.928811,-0.940104,-0.949020,-0.949419,-0.940699,-0.935420,-0.942968,-0.945986,-0.939591,-0.916154,-0.918711,-0.935867,-0.949810,-0.948959,-0.951841,-0.944286,-0.944062,-0.934333,-0.938767,-0.940284
-0.926918,-0.931056,-0.938280,-0.936298,-0.931602,-0.803501,-0.727385,-0.874788,-0.933023,-0.931076,-0.946257,-0.913293,-0.930656,-0.941476,-0.950929,-0.950371,-0.942680,-0.937163,-0.942822,-0.946585,-0.941906,-0.917375,-0.919683,-0.938210,-0.949905,-0.951386,-0.948175,-0.945692,-0.946103,-0.935989,-0.940908,-0.941891
-0.924542,-0.929211,-0.934711,-0.933018,-0.928469,-0.783779,-0.701380,-0.865340,-0.938456,-0.935383,-0.946231,-0.909068,-0.930679,-0.939595,-0.951477,-0.951905,-0.939996,-0.932584,-0.942597,-0.937716,-0.937994,-0.912385,-0.915451,-0.931933,-0.948340,-0.953834,-0.950477,-0.940167,-0.937003,-0.929510,-0.937101,-0.936569
-0.926743,-0.931691,-0.940078,-0.933269,-0.929837,-0.809324,-0.739959,-0.884448,-0.935216,-0.930431,-0.944809,-0.910277,-0.933521,-0.941776,-0.950550,-0.949479,-0.937679,-0.937311,-0.938602,-0.935241,-0.941087,-0.916475,-0.922032,-0.940246,-0.950736,-0.950962,-0.954947,-0.946859,-0.946896,-0.934642,-0.938732,-0.939990
-0.936084,-0.940832,-0.945183,-0.940788,-0.940575,-0.818885,-0.749825,-0.888678,-0.943411,-0.943554,-0.958166,-0.916332,-0.941347,-0.950471,-0.954162,-0.957823,-0.950248,-0.947064,-0.954839,-0.954958,-0.949092,-0.925830,-0.930614,-0.948239,-0.960626,-0.959707,-0.959151,-0.955630,-0.955608,-0.946393,-0.950232,-0.953719
-0.923024,-0.933042,-0.938297,-0.933032,-0.935951,-0.818304,-0.750208,-0.884644,-0.936666,-0.931801,-0.955580,-0.905821,-0.936933,-0.943511,-0.933574,-0.948544,-0.942914,-0.939843,-0.940362,-0.948285,-0.946374,-0.917179,-0.927978,-0.941161,-0.946945,-0.954134,-0.948620,-0.945243,-0.950848,-0.942664,-0.945507,-0.941341
-0.920185,-0.927589,-0.928709,-0.933926,-0.931407,-0.815125,-0.753639,-0.874536,-0.924495,-0.926060,-0.948911,-0.912743,-0.929708,-0.933559,-0.931190,-0.938825,-0.931881,-0.925825,-0.940788,-0.947519,-0.941670,-0.916901,-0.924319,-0.938279,-0.944852,-0.949145,-0.946006,-0.940638,-0.939191,-0.934455,-0.936341,-0.928481
-0.920356,-0.925024,-0.934977,-0.935242,-0.932857,-0.810563,-0.746474,-0.877641,-0.925612,-0.930213,-0.940323,-0.913999,-0.929705,-0.942610,-0.934921,-0.942530,-0.935042,-0.932441,-0.940882,-0.948336,-0.950879,-0.924928,-0.925380,-0.934919,-0.949002,-0.952167,-0.951276,-0.947889,-0.945605,-0.940215,-0.938998,-0.939477
-0.925645,-0.932041,-0.941387,-0.938306,-0.937999,-0.823182,-0.754506,-0.889707,-0.933079,-0.931540,-0.956392,-0.915030,-0.936809,-0.941957,-0.934431,-0.940261,-0.939449,-0.943094,-0.942027,-0.956167,-0.951071,-0.927702,-0.935425,-0.947769,-0.950295,-0.960897,-0.948006,-0.949371,-0.945403,-0.943665,-0.940093,-0.939403
-0.925084,-0.929513,-0.938978,-0.937059,-0.932661,-0.794198,-0.707834,-0.873886,-0.934018,-0.934819,-0.953426,-0.914914,-0.932527,-0.941717,-0.941454,-0.947009,-0.937634,-0.940306,-0.946810,-0.952001,-0.949073,-0.922020,-0.929031,-0.944020,-0.954341,-0.958211,-0.951717,-0.950137,-0.949271,-0.941093,-0.937820,-0.942182
-0.925180,-0.927199,-0.932229,-0.931918,-0.932364,-0.808054,-0.733677,-0.882443,-0.937140,-0.932811,-0.951015,-0.910603,-0.934282,-0.941840,-0.941843,-0.951352,-0.940245,-0.935463,-0.944073,-0.951079,-0.948245,-0.918259,-0.925454,-0.942908,-0.952890,-0.953838,-0.950677,-0.948046,-0.945614,-0.940911,-0.939362,-0.942731
-0.926302,-0.935118,-0.941100,-0.939124,-0.937139,-0.810687,-0.735867,-0.886596,-0.935930,-0.935570,-0.952686,-0.914010,-0.937182,-0.944744,-0.942716,-0.952014,-0.941796,-0.940464,-0.944956,-0.951131,-0.947869,-0.922600,-0.927436,-0.945658,-0.954263,-0.959517,-0.953740,-0.951820,-0.948604,-0.940667,-0.943383,-0.941855
-0.924085,-0.932321,-0.937835,-0.936560,-0.933331,-0.792042,-0.721998,-0.883784,-0.935419,-0.934228,-0.952337,-0.903010,-0.936637,-0.940339,-0.940799,-0.952105,-0.941677,-0.934974,-0.944134,-0.942168,-0.946011,-0.915567,-0.920727,-0.940603,-0.953780,-0.957164,-0.949567,-0.949350,-0.945807,-0.938806,-0.941562,-0.939110
-0.922523,-0.929712,-0.935092,-0.935629,-0.933400,-0.813774,-0.742463,-0.886750,-0.925168,-0.924361,-0.948529,-0.913567,-0.933675,-0.940890,-0.934503,-0.945354,-0.938189,-0.934264,-0.942201,-0.944946,-0.944031,-0.920556,-0.926117,-0.940013,-0.950546,-0.953606,-0.947997,-0.948556,-0.943774,-0.936174,-0.938364,-0.937581
-0.914357,-0.925618,-0.930056,-0.931140,-0.926096,-0.811209,-0.733577,-0.894040,-0.924938,-0.925684,-0.946099,-0.909233,-0.930790,-0.940973,-0.935197,-0.946128,-0.934436,-0.933126,-0.938868,-0.942898,-0.936269,-0.920305,-0.922828,-0.941033,-0.948866,-0.952164,-0.943110,-0.945875,-0.942339,-0.934744,-0.935244,-0.937147
-0.919909,-0.929979,-0.938983,-0.933824,-0.936858,-0.830076,-0.771459,-0.893633,-0.924265,-0.922482,-0.941934,-0.916481,-0.933941,-0.934015,-0.927862,-0.935798,-0.933350,-0.930954,-0.942841,-0.940319,-0.943480,-0.922313,-0.931095,-0.940724,-0.949203,-0.951392,-0.943255,-0.942060,-0.938051,-0.936316,-0.930079,-0.924089
-0.925545,-0.932685,-0.938191,-0.939214,-0.934480,-0.833575,-0.767363,-0.900631,-0.929386,-0.925864,-0.952443,-0.922925,-0.939316,-0.933804,-0.930122,-0.943965,-0.925426,-0.941394,-0.949201,-0.942972,-0.948036,-0.923065,-0.935969,-0.949283,-0.950221,-0.957978,-0.952895,-0.948357,-0.946995,-0.937611,-0.933035,-0.931677
-0.940181,-0.945050,-0.949724,-0.949379,-0.950232,-0.835229,-0.772809,-0.906283,-0.939971,-0.943088,-0.949631,-0.927530,-0.951144,-0.952849,-0.950060,-0.958339,-0.951378,-0.946254,-0.955991,-0.955385,-0.960416,-0.934761,-0.944942,-0.953560,-0.963121,-0.967701,-0.964551,-0.956071,-0.959142,-0.950971,-0.948051,-0.937966
-0.943465,-0.949727,-0.953148,-0.954036,-0.952715,-0.838674,-0.779136,-0.907778,-0.946769,-0.947098,-0.956644,-0.932217,-0.936694,-0.959828,-0.951063,-0.966622,-0.960340,-0.953264,-0.955531,-0.961059,-0.965427,-0.939922,-0.945821,-0.957918,-0.967978,-0.972706,-0.964824,-0.963447,-0.963009,-0.959008,-0.955966,-0.950874
-0.936449,-0.936239,-0.939748,-0.940491,-0.945582,-0.835716,-0.771296,-0.899949,-0.923181,-0.930690,-0.947060,-0.929352,-0.922764,-0.948283,-0.945915,-0.951432,-0.941781,-0.943597,-0.948334,-0.952353,-0.955021,-0.931246,-0.937899,-0.943396,-0.952416,-0.960223,-0.949437,-0.953330,-0.946630,-0.954448,-0.943577,-0.944275
-0.942589,-0.946668,-0.949678,-0.952379,-0.951371,-0.831221,-0.765840,-0.906045,-0.939380,-0.941569,-0.953312,-0.917632,-0.929424,-0.955114,-0.951506,-0.957862,-0.954623,-0.949447,-0.957108,-0.956630,-0.960586,-0.935775,-0.940633,-0.953266,-0.963613,-0.968035,-0.962254,-0.961001,-0.957958,-0.954223,-0.951460,-0.947935
-0.933437,-0.937974,-0.943328,-0.945347,-0.943050,-0.812569,-0.747888,-0.891423,-0.938483,-0.937833,-0.949324,-0.926820,-0.913652,-0.951472,-0.946918,-0.957503,-0.950766,-0.942207,-0.950679,-0.951250,-0.957173,-0.930274,-0.936482,-0.948938,-0.955967,-0.958908,-0.953801,-0.955351,-0.953056,-0.948886,-0.948069,-0.944941
-0.933219,-0.938606,-0.942485,-0.944080,-0.943857,-0.804195,-0.735915,-0.884375,-0.936843,-0.938415,-0.950592,-0.923490,-0.900762,-0.951315,-0.946184,-0.957036,-0.949529,-0.941913,-0.951888,-0.952312,-0.956659,-0.924289,-0.937610,-0.948101,-0.957783,-0.960320,-0.958668,-0.954784,-0.953357,-0.950567,-0.947605,-0.943528
-0.930742,-0.933946,-0.939215,-0.940203,-0.940720,-0.809090,-0.735664,-0.874845,-0.922030,-0.931603,-0.948581,-0.915368,-0.893046,-0.945404,-0.944958,-0.951363,-0.945198,-0.936853,-0.948035,-0.945396,-0.953977,-0.925434,-0.930377,-0.944111,-0.959354,-0.959445,-0.956450,-0.955315,-0.950659,-0.946022,-0.940574,-0.937231
-0.929765,-0.936339,-0.940747,-0.941861,-0.940624,-0.816998,-0.746312,-0.886640,-0.925939,-0.931280,-0.945101,-0.921226,-0.890267,-0.946100,-0.941740,-0.950247,-0.945349,-0.936647,-0.947796,-0.948891,-0.954654,-0.927420,-0.934707,-0.946992,-0.959430,-0.960465,-0.958565,-0.954893,-0.948828,-0.944911,-0.944819,-0.940309
-0.928636,-0.932799,-0.938009,-0.943010,-0.937894,-0.814625,-0.748626,-0.885778,-0.934964,-0.932876,-0.952218,-0.925087,-0.892717,-0.949131,-0.943208,-0.951165,-0.943814,-0.939713,-0.946102,-0.949511,-0.950474,-0.927208,-0.934595,-0.943515,-0.958533,-0.960037,-0.955861,-0.955740,-0.949099,-0.945414,-0.943778,-0.941795
-0.931765,-0.937522,-0.934007,-0.937641,-0.937491,-0.825797,-0.761011,-0.882505,-0.928299,-0.927882,-0.942666,-0.930789,-0.877590,-0.942153,-0.941775,-0.944518,-0.938797,-0.934197,-0.944430,-0.952346,-0.949232,-0.929391,-0.932466,-0.942291,-0.953608,-0.955398,-0.954378,-0.946239,-0.944144,-0.942825,-0.941474,-0.939449
-0.931608,-0.939492,-0.941031,-0.941644,-0.942994,-0.831290,-0.762689,-0.891574,-0.933704,-0.928837,-0.954742,-0.933071,-0.887604,-0.947507,-0.938999,-0.946664,-0.943538,-0.941340,-0.949600,-0.957941,-0.957992,-0.934847,-0.943699,-0.949791,-0.956074,-0.951568,-0.953438,-0.955021,-0.949139,-0.947419,-0.945344,-0.941494
-0.926431,-0.935641,-0.938807,-0.945626,-0.938235,-0.836176,-0.765917,-0.887849,-0.925239,-0.924983,-0.945040,-0.931270,-0.888157,-0.942928,-0.930613,-0.948673,-0.932779,-0.940316,-0.942108,-0.953274,-0.951571,-0.931283,-0.939529,-0.948802,-0.952597,-0.949402,-0.948308,-0.950475,-0.944826,-0.947798,-0.937981,-0.930109
-0.925836,-0.930996,-0.934635,-0.940367,-0.935683,-0.826190,-0.745584,-0.868752,-0.926971,-0.931662,-0.930761,-0.926000,-0.877359,-0.944715,-0.939129,-0.945467,-0.933487,-0.934651,-0.937562,-0.954711,-0.953541,-0.925119,-0.934236,-0.941866,-0.945691,-0.947841,-0.950732,-0.949657,-0.946884,-0.944093,-0.939515,-0.934724
-0.925198,-0.936523,-0.937380,-0.942719,-0.939282,-0.828105,-0.755053,-0.881857,-0.927878,-0.935096,-0.946521,-0.926105,-0.882419,-0.941324,-0.928099,-0.942274,-0.939569,-0.939232,-0.947352,-0.951274,-0.952950,-0.930748,-0.939599,-0.949489,-0.954552,-0.954113,-0.952987,-0.951084,-0.949188,-0.944152,-0.932834,-0.929574
-0.928663,-0.933782,-0.938421,-0.939809,-0.939441,-0.820782,-0.758091,-0.884883,-0.930781,-0.934632,-0.940649,-0.911109,-0.877250,-0.941534,-0.941119,-0.944603,-0.939343,-0.936789,-0.946624,-0.944804,-0.950373,-0.925518,-0.936018,-0.946187,-0.956382,-0.955588,-0.953721,-0.948739,-0.945196,-0.941893,-0.939408,-0.933826
-0.917917,-0.921000,-0.928190,-0.930186,-0.929355,-0.804683,-0.738636,-0.867090,-0.921027,-0.925013,-0.936466,-0.906570,-0.870679,-0.936766,-0.935436,-0.939336,-0.932749,-0.925073,-0.936257,-0.940796,-0.935407,-0.913020,-0.925169,-0.932971,-0.944327,-0.943045,-0.943011,-0.941216,-0.938763,-0.938000,-0.936053,-0.927286
-0.916926,-0.921563,-0.927926,-0.928160,-0.927203,-0.788398,-0.717806,-0.869699,-0.922387,-0.928853,-0.936223,-0.908215,-0.868194,-0.938369,-0.943854,-0.943534,-0.936429,-0.915978,-0.940149,-0.938518,-0.935175,-0.913685,-0.918934,-0.929289,-0.950802,-0.949501,-0.947994,-0.943357,-0.940750,-0.937609,-0.938884,-0.933522
-0.921206,-0.923903,-0.934473,-0.932820,-0.931080,-0.804972,-0.739955,-0.872555,-0.916389,-0.930287,-0.939468,-0.912679,-0.873188,-0.938743,-0.938185,-0.944713,-0.941716,-0.927561,-0.942213,-0.941964,-0.942661,-0.914439,-0.924275,-0.934861,-0.952818,-0.948035,-0.944275,-0.946925,-0.943044,-0.937066,-0.936996,-0.935330
-0.923244,-0.928290,-0.935827,-0.934757,-0.931809,-0.815162,-0.751096,-0.875567,-0.922332,-0.927009,-0.941400,-0.920967,-0.871609,-0.941389,-0.936469,-0.940428,-0.940256,-0.932981,-0.942172,-0.947181,-0.948187,-0.922681,-0.928509,-0.933813,-0.950239,-0.950534,-0.947470,-0.947252,-0.944120,-0.939558,-0.940691,-0.930100
-0.920508,-0.920135,-0.932833,-0.930597,-0.928728,-0.819447,-0.750645,-0.878239,-0.921800,-0.922071,-0.932433,-0.917195,-0.873937,-0.937758,-0.940736,-0.934493,-0.934598,-0.929191,-0.939870,-0.942993,-0.942165,-0.920184,-0.921512,-0.936958,-0.952159,-0.945687,-0.943301,-0.941301,-0.938404,-0.939972,-0.934862,-0.933249
-0.926975,-0.930903,-0.934101,-0.938486,-0.937384,-0.833072,-0.770610,-0.886881,-0.923359,-0.934233,-0.945018,-0.926098,-0.876013,-0.945624,-0.938014,-0.943384,-0.943949,-0.938871,-0.943486,-0.952106,-0.946814,-0.931207,-0.934000,-0.941344,-0.957494,-0.951191,-0.947259,-0.948977,-0.946407,-0.944982,-0.937603,-0.935342
-0.932318,-0.933934,-0.941640,-0.943739,-0.942891,-0.825616,-0.760738,-0.890372,-0.926185,-0.933539,-0.945805,-0.924443,-0.877027,-0.945321,-0.941379,-0.945469,-0.940410,-0.938056,-0.946986,-0.954794,-0.953340,-0.930705,-0.936023,-0.946585,-0.958117,-0.951314,-0.955227,-0.951552,-0.951001,-0.946452,-0.941359,-0.937951
-0.930064,-0.935767,-0.941036,-0.943192,-0.942889,-0.829372,-0.756956,-0.888091,-0.929232,-0.939281,-0.941090,-0.921399,-0.877994,-0.944414,-0.944520,-0.948786,-0.941915,-0.939088,-0.949544,-0.953174,-0.952304,-0.931386,-0.934191,-0.945966,-0.957158,-0.954453,-0.953227,-0.952797,-0.951581,-0.943493,-0.943382,-0.939873
-0.928919,-0.935951,-0.939864,-0.940547,-0.935883,-0.829507,-0.766470,-0.876180,-0.924907,-0.932343,-0.941392,-0.921452,-0.871834,-0.944673,-0.942321,-0.946606,-0.945544,-0.938779,-0.946561,-0.949448,-0.952120,-0.928675,-0.931315,-0.944778,-0.947652,-0.955248,-0.946840,-0.952342,-0.946381,-0.946128,-0.943196,-0.934791
-0.921313,-0.926861,-0.933116,-0.935692,-0.938108,-0.831820,-0.765030,-0.881113,-0.920844,-0.930969,-0.936872,-0.924426,-0.874727,-0.939825,-0.940175,-0.942030,-0.941146,-0.934679,-0.943424,-0.951685,-0.953345,-0.930493,-0.934854,-0.944735,-0.952426,-0.955486,-0.948412,-0.947591,-0.950278,-0.942815,-0.937928,-0.934568
-0.908077,-0.916988,-0.926873,-0.926347,-0.931214,-0.832325,-0.765599,-0.878786,-0.905090,-0.915412,-0.926435,-0.920354,-0.871442,-0.925222,-0.915912,-0.917998,-0.927044,-0.928425,-0.931367,-0.943187,-0.943452,-0.924802,-0.928238,-0.934786,-0.941140,-0.942121,-0.940084,-0.940258,-0.936596,-0.928154,-0.920215,-0.914959
-0.913903,-0.916313,-0.925655,-0.923449,-0.921088,-0.788463,-0.707288,-0.845915,-0.927176,-0.929281,-0.936042,-0.913631,-0.863140,-0.923842,-0.929983,-0.934972,-0.925611,-0.912163,-0.937118,-0.942910,-0.936159,-0.911969,-0.910675,-0.925937,-0.944644,-0.945043,-0.941122,-0.940865,-0.926332,-0.924732,-0.925775,-0.917024
-0.903651,-0.911922,-0.914329,-0.908902,-0.916779,-0.788550,-0.714606,-0.850332,-0.905094,-0.913694,-0.926711,-0.898955,-0.844087,-0.929976,-0.924948,-0.926141,-0.923690,-0.910410,-0.927714,-0.927116,-0.932736,-0.904942,-0.908242,-0.916272,-0.941031,-0.937915,-0.926746,-0.927782,-0.923888,-0.911187,-0.920210,-0.915628
-0.921251,-0.928517,-0.930823,-0.932435,-0.933418,-0.820855,-0.748530,-0.879710,-0.932425,-0.935568,-0.940674,-0.919043,-0.896453,-0.943538,-0.944442,-0.948516,-0.941891,-0.935339,-0.943094,-0.948277,-0.947591,-0.922463,-0.928722,-0.940410,-0.954752,-0.954249,-0.950543,-0.947925,-0.947121,-0.941423,-0.944121,-0.934393
-0.925655,-0.927063,-0.928324,-0.926945,-0.935581,-0.827019,-0.757475,-0.878901,-0.929579,-0.937452,-0.939676,-0.921173,-0.883995,-0.943787,-0.937401,-0.938504,-0.934144,-0.933304,-0.938024,-0.944645,-0.949246,-0.922354,-0.929273,-0.939644,-0.953094,-0.951191,-0.948720,-0.946954,-0.939608,-0.939024,-0.940352,-0.937405
-0.916593,-0.922226,-0.924723,-0.926350,-0.924378,-0.818284,-0.753571,-0.879051,-0.918417,-0.919298,-0.937174,-0.917986,-0.916253,-0.932604,-0.936679,-0.939598,-0.936142,-0.929165,-0.931508,-0.940277,-0.940007,-0.918010,-0.922397,-0.934341,-0.942611,-0.946222,-0.940477,-0.940390,-0.937894,-0.936830,-0.934072,-0.927613
-0.922862,-0.927256,-0.931491,-0.931028,-0.932999,-0.817623,-0.741095,-0.871756,-0.936966,-0.944671,-0.944171,-0.921913,-0.932700,-0.945687,-0.944754,-0.950800,-0.945585,-0.936719,-0.947462,-0.952327,-0.952817,-0.929269,-0.929226,-0.942431,-0.955423,-0.957830,-0.953495,-0.948600,-0.948998,-0.941594,-0.942477,-0.939617
-0.932668,-0.935305,-0.939806,-0.941327,-0.941348,-0.831993,-0.769365,-0.892380,-0.937771,-0.948752,-0.945537,-0.925295,-0.941505,-0.948837,-0.944992,-0.947915,-0.944049,-0.938850,-0.951788,-0.954243,-0.956013,-0.933712,-0.940199,-0.945380,-0.955662,-0.954281,-0.947661,-0.948965,-0.946056,-0.944382,-0.943556,-0.942066
-0.927066,-0.936090,-0.942508,-0.939250,-0.944861,-0.833638,-0.756600,-0.887413,-0.933576,-0.946224,-0.940896,-0.917038,-0.937106,-0.945772,-0.939324,-0.947027,-0.947020,-0.940241,-0.950888,-0.953013,-0.952105,-0.930824,-0.937815,-0.945646,-0.962887,-0.958649,-0.950768,-0.948735,-0.950680,-0.944798,-0.948157,-0.939018
-0.933262,-0.937153,-0.942888,-0.941606,-0.945256,-0.824487,-0.757381,-0.882098,-0.937527,-0.945466,-0.947718,-0.924832,-0.940996,-0.948300,-0.943874,-0.949968,-0.947324,-0.943664,-0.951771,-0.954525,-0.956597,-0.930461,-0.935600,-0.946596,-0.963860,-0.962587,-0.956570,-0.952007,-0.952770,-0.945096,-0.948529,-0.942679
-0.931708,-0.936612,-0.940434,-0.938786,-0.943856,-0.838212,-0.783062,-0.893806,-0.932849,-0.941576,-0.940595,-0.925853,-0.939527,-0.948014,-0.944791,-0.950803,-0.949216,-0.942651,-0.948633,-0.952441,-0.952694,-0.931857,-0.933659,-0.945423,-0.962928,-0.961533,-0.956098,-0.952460,-0.950090,-0.942352,-0.948267,-0.940043
-0.932182,-0.933554,-0.939953,-0.938902,-0.944051,-0.838604,-0.780842,-0.895650,-0.936166,-0.944418,-0.944991,-0.926753,-0.941511,-0.946323,-0.944199,-0.951160,-0.947552,-0.938949,-0.946390,-0.952753,-0.950292,-0.929948,-0.933554,-0.941647,-0.961248,-0.957338,-0.953542,-0.948116,-0.948990,-0.940480,-0.947373,-0.941305
-0.926686,-0.928106,-0.936139,-0.934181,-0.939464,-0.828994,-0.765346,-0.893763,-0.925197,-0.939174,-0.944573,-0.926040,-0.935209,-0.942606,-0.937336,-0.947350,-0.943650,-0.938236,-0.944211,-0.951004,-0.944955,-0.927208,-0.932493,-0.942277,-0.954443,-0.955448,-0.952604,-0.949911,-0.946571,-0.937874,-0.940024,-0.936791
-0.908734,-0.915965,-0.921497,-0.923852,-0.928429,-0.827341,-0.767472,-0.877548,-0.925791,-0.929636,-0.933925,-0.918806,-0.925346,-0.932470,-0.923816,-0.925363,-0.927803,-0.926045,-0.932933,-0.940908,-0.939510,-0.919077,-0.921015,-0.932221,-0.946893,-0.943667,-0.937857,-0.936336,-0.931122,-0.928829,-0.928960,-0.916386
-0.907036,-0.910361,-0.920975,-0.915981,-0.922775,-0.815030,-0.734827,-0.878678,-0.922779,-0.934074,-0.935903,-0.916083,-0.924017,-0.934412,-0.932406,-0.935948,-0.927357,-0.922704,-0.929796,-0.928741,-0.941381,-0.915838,-0.920781,-0.930303,-0.943729,-0.943231,-0.939627,-0.941693,-0.934082,-0.929587,-0.924130,-0.920925
-0.921854,-0.928997,-0.934874,-0.930082,-0.938352,-0.830994,-0.771415,-0.895243,-0.938027,-0.945534,-0.946450,-0.922585,-0.934666,-0.944103,-0.933732,-0.942691,-0.936998,-0.933640,-0.938701,-0.938072,-0.944847,-0.925033,-0.926918,-0.935514,-0.951483,-0.944886,-0.944077,-0.943559,-0.941533,-0.932584,-0.939786,-0.930984
-0.928322,-0.933244,-0.937979,-0.932457,-0.939979,-0.834213,-0.761348,-0.899106,-0.933189,-0.937135,-0.948988,-0.935323,-0.939023,-0.946181,-0.943120,-0.945771,-0.945011,-0.941090,-0.947903,-0.948408,-0.949771,-0.930657,-0.930172,-0.936511,-0.950172,-0.952888,-0.952664,-0.949278,-0.947064,-0.941180,-0.943107,-0.940734
-0.924780,-0.930391,-0.932888,-0.935909,-0.938225,-0.834588,-0.769677,-0.897942,-0.942396,-0.947255,-0.955165,-0.936295,-0.940549,-0.949298,-0.941217,-0.944731,-0.946629,-0.941244,-0.948635,-0.947433,-0.952945,-0.930152,-0.929506,-0.938444,-0.952541,-0.953124,-0.951878,-0.950860,-0.946728,-0.943683,-0.941735,-0.939571
-0.933712,-0.939461,-0.944255,-0.944775,-0.946047,-0.857054,-0.797946,-0.909062,-0.945238,-0.954303,-0.953477,-0.942041,-0.946759,-0.952807,-0.945028,-0.948371,-0.944468,-0.944943,-0.950081,-0.954505,-0.956591,-0.940136,-0.940830,-0.946473,-0.956524,-0.956146,-0.950135,-0.956103,-0.953078,-0.949326,-0.949488,-0.944920
-0.938224,-0.941409,-0.947631,-0.944936,-0.949472,-0.859234,-0.797309,-0.908175,-0.945672,-0.953315,-0.957705,-0.942386,-0.945396,-0.952598,-0.950287,-0.954497,-0.951798,-0.945343,-0.954946,-0.952025,-0.959445,-0.937777,-0.941856,-0.947464,-0.963283,-0.963182,-0.957553,-0.958917,-0.953123,-0.950303,-0.951813,-0.944394
-0.937955,-0.940720,-0.946631,-0.944804,-0.949804,-0.855630,-0.793543,-0.905423,-0.946969,-0.953441,-0.955090,-0.939551,-0.946656,-0.952969,-0.949077,-0.953904,-0.950942,-0.947079,-0.954480,-0.952531,-0.958198,-0.938298,-0.941024,-0.947604,-0.962598,-0.962846,-0.956922,-0.957179,-0.953680,-0.948793,-0.951443,-0.945689
-0.937169,-0.938468,-0.942886,-0.941006,-0.945691,-0.853377,-0.788704,-0.906382,-0.944784,-0.951686,-0.950535,-0.930599,-0.946327,-0.946923,-0.946175,-0.952065,-0.948618,-0.944295,-0.952272,-0.948842,-0.954728,-0.935645,-0.932642,-0.941904,-0.957093,-0.955576,-0.953851,-0.956412,-0.947235,-0.945198,-0.948559,-0.941446
-0.933320,-0.937963,-0.939742,-0.939757,-0.943849,-0.824180,-0.753391,-0.876068,-0.937475,-0.944151,-0.954834,-0.927160,-0.939320,-0.942286,-0.946780,-0.950493,-0.946327,-0.939079,-0.945250,-0.943434,-0.947765,-0.927046,-0.928245,-0.935370,-0.955538,-0.951541,-0.949106,-0.953756,-0.943498,-0.944691,-0.943845,-0.939463
-0.932353,-0.937411,-0.938566,-0.939121,-0.946486,-0.852646,-0.785426,-0.900053,-0.935414,-0.941599,-0.952043,-0.924790,-0.936898,-0.950302,-0.945776,-0.945307,-0.938571,-0.937306,-0.949032,-0.943178,-0.957635,-0.935503,-0.937751,-0.946968,-0.955658,-0.959520,-0.953622,-0.949669,-0.947302,-0.944653,-0.948087,-0.936362
-0.925086,-0.922330,-0.930408,-0.929301,-0.936395,-0.827817,-0.754426,-0.889713,-0.932312,-0.946217,-0.949525,-0.932017,-0.930627,-0.943808,-0.938167,-0.943721,-0.933910,-0.934074,-0.942916,-0.943399,-0.954151,-0.925620,-0.928336,-0.936336,-0.949992,-0.953850,-0.945783,-0.939636,-0.945755,-0.940645,-0.940413,-0.939788
-0.929499,-0.931879,-0.937715,-0.935418,-0.938233,-0.830396,-0.758486,-0.890243,-0.941213,-0.947356,-0.952036,-0.929217,-0.940680,-0.946911,-0.947950,-0.949932,-0.944253,-0.941394,-0.947103,-0.949401,-0.955384,-0.929818,-0.934419,-0.941226,-0.956874,-0.957277,-0.949841,-0.951170,-0.950105,-0.945348,-0.946868,-0.938943
-0.920413,-0.925100,-0.930135,-0.926152,-0.928130,-0.832521,-0.762464,-0.883142,-0.919186,-0.934582,-0.941034,-0.926787,-0.928909,-0.938751,-0.934206,-0.939074,-0.930813,-0.935430,-0.939478,-0.941999,-0.951311,-0.923836,-0.926935,-0.936573,-0.948327,-0.943402,-0.938657,-0.946143,-0.937871,-0.939588,-0.939889,-0.933497
-0.880870,-0.887855,-0.897260,-0.895654,-0.904337,-0.814877,-0.746646,-0.860090,-0.899181,-0.907803,-0.916562,-0.909228,-0.898573,-0.911117,-0.911109,-0.903908,-0.895833,-0.907803,-0.920539,-0.922663,-0.926170,-0.907916,-0.894305,-0.912369,-0.919322,-0.922450,-0.914902,-0.916861,-0.921258,-0.903591,-0.903555,-0.895816
-0.934095,-0.938350,-0.940926,-0.940176,-0.942131,-0.808244,-0.727008,-0.877430,-0.946659,-0.950856,-0.957475,-0.917987,-0.939672,-0.948134,-0.953202,-0.960521,-0.947724,-0.942638,-0.953319,-0.947776,-0.954282,-0.925897,-0.929724,-0.939172,-0.958791,-0.959315,-0.954503,-0.952967,-0.951596,-0.946139,-0.950283,-0.943427
-0.936899,-0.940610,-0.942965,-0.943586,-0.943113,-0.838446,-0.765286,-0.881919,-0.942858,-0.950433,-0.957836,-0.925335,-0.941162,-0.954142,-0.953748,-0.959015,-0.948615,-0.945506,-0.953100,-0.950840,-0.955327,-0.931714,-0.935818,-0.943638,-0.961865,-0.962011,-0.953981,-0.954307,-0.952728,-0.947970,-0.946541,-0.943151
-0.934910,-0.938229,-0.940673,-0.940196,-0.941864,-0.832639,-0.754982,-0.870902,-0.943919,-0.949870,-0.956878,-0.927485,-0.939047,-0.953557,-0.948056,-0.955390,-0.943372,-0.940559,-0.948943,-0.950415,-0.953618,-0.931946,-0.935079,-0.939454,-0.959922,-0.954092,-0.951868,-0.954920,-0.952787,-0.946865,-0.945754,-0.941429
-0.933369,-0.938540,-0.937857,-0.941558,-0.938501,-0.835235,-0.768296,-0.885464,-0.937837,-0.940899,-0.956730,-0.919928,-0.936101,-0.947737,-0.948022,-0.953646,-0.947493,-0.941456,-0.949389,-0.946563,-0.949514,-0.928484,-0.931808,-0.940822,-0.957987,-0.957202,-0.951032,-0.951481,-0.951994,-0.945439,-0.945401,-0.939289
-0.934013,-0.934316,-0.936587,-0.936524,-0.937301,-0.826207,-0.762160,-0.883142,-0.936035,-0.939875,-0.950103,-0.919746,-0.935147,-0.947655,-0.941332,-0.950397,-0.939856,-0.940149,-0.944593,-0.942720,-0.944504,-0.922562,-0.926535,-0.936474,-0.953004,-0.953783,-0.948992,-0.949182,-0.947113,-0.943827,-0.938558,-0.935721
-0.935504,-0.931915,-0.940507,-0.937867,-0.933304,-0.836254,-0.768854,-0.886794,-0.931850,-0.938984,-0.949687,-0.929184,-0.938082,-0.949053,-0.952914,-0.952451,-0.941179,-0.942562,-0.947132,-0.949462,-0.950800,-0.929093,-0.934478,-0.937645,-0.955062,-0.956649,-0.943180,-0.948894,-0.947288,-0.945613,-0.939707,-0.936453
-0.927486,-0.925017,-0.933407,-0.931497,-0.934597,-0.825298,-0.762685,-0.872750,-0.928513,-0.933725,-0.951022,-0.920487,-0.933461,-0.942580,-0.943728,-0.943874,-0.939280,-0.934442,-0.940678,-0.944736,-0.947055,-0.920625,-0.928306,-0.935976,-0.952814,-0.948733,-0.938463,-0.943594,-0.939004,-0.939998,-0.935057,-0.925688
-0.903905,-0.910468,-0.911645,-0.920013,-0.906221,-0.690050,-0.567005,-0.811077,-0.938982,-0.931867,-0.951405,-0.872417,-0.913045,-0.938218,-0.945522,-0.951308,-0.935685,-0.920224,-0.929277,-0.929947,-0.937751,-0.874335,-0.892741,-0.909942,-0.948238,-0.949952,-0.939662,-0.930913,-0.933985,-0.923473,-0.934321,-0.931116
-0.930298,-0.927907,-0.934311,-0.934948,-0.936418,-0.820946,-0.745193,-0.880874,-0.940215,-0.935454,-0.954823,-0.921357,-0.927811,-0.947094,-0.950794,-0.947831,-0.943110,-0.935076,-0.947553,-0.948596,-0.951994,-0.923428,-0.927124,-0.936685,-0.954481,-0.958713,-0.944764,-0.947866,-0.945125,-0.944665,-0.943874,-0.937804
-0.930768,-0.931928,-0.936678,-0.935423,-0.935880,-0.809470,-0.732558,-0.872927,-0.939581,-0.940723,-0.956929,-0.915376,-0.934755,-0.950502,-0.949287,-0.954548,-0.943217,-0.939461,-0.942782,-0.948146,-0.948871,-0.918330,-0.924179,-0.937658,-0.956402,-0.956819,-0.951239,-0.949007,-0.948611,-0.943635,-0.944524,-0.938275
-0.923461,-0.927845,-0.926765,-0.931125,-0.934335,-0.809128,-0.738060,-0.867652,-0.939553,-0.946637,-0.953862,-0.914586,-0.929088,-0.940013,-0.946860,-0.948232,-0.937373,-0.930813,-0.932033,-0.941916,-0.943479,-0.916035,-0.921995,-0.931102,-0.948364,-0.950353,-0.944459,-0.943886,-0.941860,-0.936684,-0.937671,-0.935890
-0.926498,-0.931091,-0.932277,-0.933945,-0.931268,-0.805471,-0.727166,-0.875781,-0.942563,-0.944257,-0.953713,-0.911879,-0.935570,-0.949375,-0.948922,-0.955495,-0.938902,-0.935772,-0.941735,-0.945769,-0.942696,-0.917493,-0.924932,-0.936542,-0.951146,-0.952860,-0.938505,-0.945669,-0.951867,-0.941391,-0.939843,-0.934947
-0.902550,-0.916043,-0.918985,-0.928683,-0.928008,-0.824340,-0.751456,-0.874380,-0.915302,-0.929160,-0.942362,-0.919179,-0.925116,-0.932140,-0.926959,-0.913112,-0.926887,-0.930921,-0.930709,-0.938016,-0.947352,-0.919120,-0.926795,-0.927014,-0.943144,-0.942283,-0.938632,-0.940025,-0.933196,-0.930634,-0.913257,-0.911244
-0.940392,-0.940090,-0.945312,-0.947512,-0.948717,-0.827971,-0.759588,-0.890297,-0.939973,-0.947077,-0.961541,-0.929397,-0.941565,-0.952490,-0.945950,-0.956958,-0.949032,-0.951335,-0.953972,-0.959939,-0.963005,-0.936666,-0.941416,-0.946172,-0.968973,-0.963859,-0.959297,-0.958836,-0.956075,-0.949696,-0.945005,-0.940294
-0.939528,-0.937873,-0.943417,-0.940683,-0.939306,-0.828323,-0.760378,-0.881457,-0.940899,-0.942265,-0.952137,-0.920067,-0.940719,-0.952723,-0.958119,-0.959085,-0.952816,-0.937569,-0.949130,-0.946238,-0.951001,-0.926253,-0.928737,-0.940656,-0.960254,-0.955970,-0.957342,-0.956054,-0.948117,-0.948240,-0.945411,-0.943748
-0.937262,-0.938434,-0.937284,-0.944083,-0.943276,-0.827998,-0.762001,-0.881581,-0.939433,-0.940183,-0.962549,-0.926338,-0.945202,-0.952428,-0.954576,-0.955276,-0.953515,-0.941228,-0.948014,-0.954330,-0.957491,-0.929532,-0.935736,-0.946947,-0.965683,-0.961507,-0.959217,-0.955427,-0.951809,-0.947784,-0.948989,-0.944297
-0.927101,-0.924448,-0.928815,-0.934640,-0.929012,-0.798039,-0.721288,-0.850764,-0.939792,-0.941346,-0.953692,-0.923133,-0.939043,-0.946088,-0.951031,-0.946902,-0.943466,-0.928916,-0.938505,-0.946085,-0.951143,-0.919648,-0.930635,-0.940510,-0.954057,-0.956639,-0.953512,-0.942773,-0.944409,-0.939666,-0.941916,-0.930897
-0.933324,-0.931477,-0.939257,-0.944635,-0.937279,-0.826741,-0.754830,-0.871771,-0.938843,-0.943392,-0.953240,-0.925769,-0.942499,-0.947956,-0.949519,-0.953027,-0.945342,-0.944363,-0.945198,-0.954827,-0.955016,-0.929576,-0.930555,-0.943055,-0.957809,-0.957329,-0.955123,-0.955966,-0.946381,-0.946727,-0.944986,-0.937575
