0,1,2,3,4,5,6,7,8,9,10,11,12,13,14,15,16,17,18,19,20,21,22,23,24,25,26,27,28,29,30,31
-0.773757,-0.774111,-0.729287,-0.751479,-0.682052,-0.738356,-0.723240,-0.728869,-1.000000,-0.711506,-0.529286,-0.578451,-0.603575,-0.554846,-0.704449,-0.732599,-0.750556,-0.735329,-0.726942,-0.721062,-0.631437,-0.721260,-0.663219,-0.696734,-0.700396,-0.580901,-0.475539,-0.523319,-0.648426,-0.619532,-0.708660,-0.737917
-0.791049,-0.789717,-0.739283,-0.757641,-0.708805,-0.763470,-0.743896,-0.734962,-1.000000,-0.694739,-0.514022,-0.564384,-0.590613,-0.545109,-0.696819,-0.729452,-0.760909,-0.751275,-0.737862,-0.731740,-0.660313,-0.746971,-0.685072,-0.709931,-0.705908,-0.580810,-0.463055,-0.511157,-0.651615,-0.611771,-0.698165,-0.731934
-0.793509,-0.790604,-0.732752,-0.762325,-0.704721,-0.740557,-0.724835,-0.716032,-1.000000,-0.700981,-0.483873,-0.556200,-0.598484,-0.541642,-0.688833,-0.722150,-0.755298,-0.744699,-0.724222,-0.730736,-0.669989,-0.738907,-0.662106,-0.683324,-0.708220,-0.531051,-0.441957,-0.508379,-0.651744,-0.605920,-0.692000,-0.725276
-0.799190,-0.798004,-0.748526,-0.772245,-0.722868,-0.767020,-0.751378,-0.743975,-1.000000,-0.708852,-0.510937,-0.562560,-0.586271,-0.508332,-0.689744,-0.729481,-0.765452,-0.755119,-0.733407,-0.734166,-0.676475,-0.757560,-0.686683,-0.720241,-0.707754,-0.560938,-0.451676,-0.500048,-0.639802,-0.570116,-0.691071,-0.731476
-0.796839,-0.794452,-0.741053,-0.763277,-0.717388,-0.764796,-0.752796,-0.743331,-1.000000,-0.713036,-0.516426,-0.567284,-0.604021,-0.542851,-0.697135,-0.729864,-0.762211,-0.751493,-0.726663,-0.728259,-0.683631,-0.755423,-0.696142,-0.722725,-0.709891,-0.562851,-0.469969,-0.524381,-0.656145,-0.604989,-0.700511,-0.735086
-0.786895,-0.786743,-0.743864,-0.769067,-0.721245,-0.764459,-0.749555,-0.742700,-1.000000,-0.707960,-0.513987,-0.565944,-0.602608,-0.540693,-0.691377,-0.724366,-0.750958,-0.733604,-0.728868,-0.736577,-0.694492,-0.749815,-0.693455,-0.724804,-0.718343,-0.567222,-0.471529,-0.519853,-0.652836,-0.600345,-0.695131,-0.728499
-0.790801,-0.791283,-0.742502,-0.766247,-0.718285,-0.761670,-0.747702,-0.738269,-1.000000,-0.708811,-0.504161,-0.563489,-0.596879,-0.543957,-0.688683,-0.722652,-0.757469,-0.747499,-0.721733,-0.731745,-0.673982,-0.747347,-0.687134,-0.717475,-0.715317,-0.559321,-0.472440,-0.524879,-0.614970,-0.591461,-0.690239,-0.725102
-0.777538,-0.778395,-0.730362,-0.754866,-0.711306,-0.740942,-0.730625,-0.724566,-1.000000,-0.667539,-0.453233,-0.478779,-0.500136,-0.494702,-0.667621,-0.700928,-0.743683,-0.738291,-0.716514,-0.712449,-0.666085,-0.726741,-0.656247,-0.695405,-0.700199,-0.538037,-0.425199,-0.458160,-0.554186,-0.566028,-0.663330,-0.697849
-0.772968,-0.772322,-0.741932,-0.736128,-0.679238,-0.737209,-0.721598,-0.713354,-1.000000,-0.678036,-0.499503,-0.541261,-0.574770,-0.539651,-0.683831,-0.714367,-0.752901,-0.736145,-0.716914,-0.677079,-0.551576,-0.712849,-0.666587,-0.690979,-0.701102,-0.551487,-0.473082,-0.534164,-0.622928,-0.604606,-0.691350,-0.721285
-0.800676,-0.798323,-0.741911,-0.769150,-0.733953,-0.766954,-0.752309,-0.754654,-1.000000,-0.715547,-0.526662,-0.561931,-0.606054,-0.554866,-0.705488,-0.741187,-0.771993,-0.756974,-0.734819,-0.722896,-0.692380,-0.745016,-0.688685,-0.723634,-0.724040,-0.582522,-0.495693,-0.554373,-0.643322,-0.607862,-0.710940,-0.745266
-0.800847,-0.792112,-0.739577,-0.757524,-0.705607,-0.752766,-0.746504,-0.752541,-1.000000,-0.743658,-0.570886,-0.604376,-0.643897,-0.611984,-0.713599,-0.738365,-0.754452,-0.743611,-0.731293,-0.729263,-0.683105,-0.739492,-0.681282,-0.723623,-0.726585,-0.589352,-0.527013,-0.562422,-0.685429,-0.613480,-0.708869,-0.743837
-0.806119,-0.801817,-0.749523,-0.771434,-0.733207,-0.769943,-0.757945,-0.749951,-1.000000,-0.738045,-0.580351,-0.624443,-0.695851,-0.633685,-0.724446,-0.750737,-0.769074,-0.756201,-0.733567,-0.734736,-0.694306,-0.749384,-0.700055,-0.722847,-0.722030,-0.598199,-0.553010,-0.588951,-0.694155,-0.652047,-0.731445,-0.759885
-0.795560,-0.795366,-0.737107,-0.719033,-0.697735,-0.758286,-0.742162,-0.723115,-1.000000,-0.721714,-0.552081,-0.591458,-0.662090,-0.625871,-0.719515,-0.741965,-0.770900,-0.756723,-0.710814,-0.642625,-0.678705,-0.743734,-0.681730,-0.704341,-0.684646,-0.571230,-0.525272,-0.556326,-0.687803,-0.655063,-0.730233,-0.748433
-0.805338,-0.802303,-0.752380,-0.757735,-0.718063,-0.767661,-0.748823,-0.732542,-1.000000,-0.754603,-0.602819,-0.638241,-0.706800,-0.638846,-0.735825,-0.760529,-0.775752,-0.763451,-0.732429,-0.708927,-0.684351,-0.749696,-0.697141,-0.716851,-0.704729,-0.618010,-0.576211,-0.598420,-0.672541,-0.631285,-0.738133,-0.764594
-0.799870,-0.784853,-0.732461,-0.745658,-0.711169,-0.740642,-0.740062,-0.728519,-1.000000,-0.736739,-0.591758,-0.641845,-0.718981,-0.649796,-0.733793,-0.753405,-0.769382,-0.758982,-0.711336,-0.709873,-0.670992,-0.731082,-0.672683,-0.688342,-0.675036,-0.574147,-0.565743,-0.619046,-0.725344,-0.664857,-0.740742,-0.758554
-0.809653,-0.804325,-0.752616,-0.769460,-0.718504,-0.766871,-0.762726,-0.756784,-1.000000,-0.753057,-0.595100,-0.643418,-0.709493,-0.644742,-0.741928,-0.764235,-0.778281,-0.751127,-0.736080,-0.712936,-0.673739,-0.750866,-0.700041,-0.731700,-0.720963,-0.604931,-0.570633,-0.623713,-0.721144,-0.664416,-0.750182,-0.770013
-0.815617,-0.803020,-0.749840,-0.763082,-0.722398,-0.768667,-0.766508,-0.745052,-1.000000,-0.752535,-0.600514,-0.643919,-0.710129,-0.654388,-0.752110,-0.773010,-0.787344,-0.769316,-0.728028,-0.709132,-0.670665,-0.755383,-0.707616,-0.734798,-0.723144,-0.610811,-0.572181,-0.605443,-0.725701,-0.664387,-0.752648,-0.776122
-0.798836,-0.784203,-0.724993,-0.749421,-0.693401,-0.757731,-0.769937,-0.775712,-1.000000,-0.761818,-0.600757,-0.645556,-0.723593,-0.671756,-0.749474,-0.764628,-0.766994,-0.745524,-0.687820,-0.681555,-0.659765,-0.740104,-0.709002,-0.745843,-0.738646,-0.619441,-0.565051,-0.605723,-0.705984,-0.677440,-0.752304,-0.767106
-0.805960,-0.799424,-0.753570,-0.771862,-0.730153,-0.768753,-0.767620,-0.768176,-1.000000,-0.740578,-0.579279,-0.608971,-0.671505,-0.647027,-0.743582,-0.766935,-0.786465,-0.768593,-0.726555,-0.704580,-0.667986,-0.754134,-0.714984,-0.731274,-0.727355,-0.608216,-0.567808,-0.603154,-0.705603,-0.648661,-0.748577,-0.771319
-0.812454,-0.800624,-0.745788,-0.769093,-0.714911,-0.768261,-0.765887,-0.774391,-1.000000,-0.755462,-0.624370,-0.643683,-0.728771,-0.680147,-0.758876,-0.779327,-0.788033,-0.767942,-0.728697,-0.707752,-0.651038,-0.753934,-0.704134,-0.729294,-0.725170,-0.622642,-0.594865,-0.635956,-0.720772,-0.681916,-0.762209,-0.781710
-0.808086,-0.789962,-0.747653,-0.759861,-0.700828,-0.770044,-0.761860,-0.772066,-1.000000,-0.753641,-0.626143,-0.663157,-0.730152,-0.676173,-0.760002,-0.779033,-0.782570,-0.763715,-0.726466,-0.704319,-0.657328,-0.739348,-0.704779,-0.736355,-0.739756,-0.629583,-0.600133,-0.642650,-0.722411,-0.682582,-0.764978,-0.782865
-0.801563,-0.793264,-0.748155,-0.756057,-0.693977,-0.769871,-0.758368,-0.766864,-1.000000,-0.762478,-0.608745,-0.655728,-0.715145,-0.668929,-0.752537,-0.773024,-0.783040,-0.762505,-0.719965,-0.697490,-0.659541,-0.749734,-0.706210,-0.730091,-0.730973,-0.614064,-0.583904,-0.626415,-0.727926,-0.670541,-0.758399,-0.777823
-0.812513,-0.796826,-0.753591,-0.761047,-0.708153,-0.775941,-0.764266,-0.772901,-1.000000,-0.763675,-0.564723,-0.627050,-0.723074,-0.660239,-0.753537,-0.776996,-0.786938,-0.765615,-0.724897,-0.705759,-0.661153,-0.760044,-0.711331,-0.738095,-0.734282,-0.607228,-0.560260,-0.606823,-0.730261,-0.673900,-0.761252,-0.784076
-0.810869,-0.798614,-0.752818,-0.756181,-0.716372,-0.784404,-0.766506,-0.769969,-1.000000,-0.770092,-0.614201,-0.649723,-0.727993,-0.660205,-0.757076,-0.780857,-0.782995,-0.758814,-0.724787,-0.708236,-0.668768,-0.766606,-0.716326,-0.744343,-0.755562,-0.628084,-0.591610,-0.637739,-0.748251,-0.667338,-0.763593,-0.787028
-0.813727,-0.794321,-0.744063,-0.758361,-0.712961,-0.779459,-0.774402,-0.770226,-1.000000,-0.780244,-0.631225,-0.691238,-0.770073,-0.706675,-0.767905,-0.785499,-0.788318,-0.763604,-0.720899,-0.703474,-0.669688,-0.760922,-0.717742,-0.750526,-0.758290,-0.631091,-0.601337,-0.650234,-0.751860,-0.689271,-0.773851,-0.792362
-0.803768,-0.791288,-0.748039,-0.747459,-0.700499,-0.778983,-0.771975,-0.782868,-1.000000,-0.765491,-0.616600,-0.671777,-0.747110,-0.704727,-0.768917,-0.783694,-0.785905,-0.762216,-0.718216,-0.684545,-0.637014,-0.755294,-0.715508,-0.745116,-0.751819,-0.609095,-0.599972,-0.652891,-0.744773,-0.699657,-0.774213,-0.788917
-0.800834,-0.787726,-0.731169,-0.746981,-0.698944,-0.769320,-0.768610,-0.774237,-1.000000,-0.771317,-0.626201,-0.677035,-0.758346,-0.718958,-0.777012,-0.786380,-0.781658,-0.760040,-0.691634,-0.693736,-0.654965,-0.753168,-0.712519,-0.745797,-0.753321,-0.614846,-0.592444,-0.643351,-0.736310,-0.700068,-0.778764,-0.788941
-0.821267,-0.806079,-0.753834,-0.765087,-0.712800,-0.784382,-0.782878,-0.785870,-1.000000,-0.787594,-0.628478,-0.681649,-0.761469,-0.717835,-0.779187,-0.796455,-0.798104,-0.776502,-0.701523,-0.708658,-0.673084,-0.765486,-0.724900,-0.758710,-0.765560,-0.628073,-0.599259,-0.651415,-0.756019,-0.699627,-0.784040,-0.800997
-0.809701,-0.798600,-0.754562,-0.760220,-0.705758,-0.779532,-0.780131,-0.780006,-1.000000,-0.769584,-0.587022,-0.640705,-0.745207,-0.704585,-0.770425,-0.789665,-0.793254,-0.772295,-0.713074,-0.706147,-0.653394,-0.756160,-0.720774,-0.753332,-0.746539,-0.626312,-0.569679,-0.622927,-0.730323,-0.688014,-0.771987,-0.792207
-0.817841,-0.802317,-0.752215,-0.754271,-0.696740,-0.770830,-0.775619,-0.787380,-1.000000,-0.751380,-0.624368,-0.654098,-0.745860,-0.721187,-0.780385,-0.793819,-0.795261,-0.776193,-0.719026,-0.711312,-0.649403,-0.751949,-0.714943,-0.746520,-0.746714,-0.619171,-0.585691,-0.636286,-0.725744,-0.706439,-0.787277,-0.799077
-0.809338,-0.793380,-0.749214,-0.764817,-0.705196,-0.778656,-0.756831,-0.768301,-1.000000,-0.760503,-0.587072,-0.613875,-0.738550,-0.704931,-0.766640,-0.781112,-0.781687,-0.760258,-0.709689,-0.709149,-0.634670,-0.753989,-0.691221,-0.726837,-0.759556,-0.541523,-0.590873,-0.645487,-0.687895,-0.700311,-0.779593,-0.790017
-0.762988,-0.762753,-0.704017,-0.736566,-0.679775,-0.754182,-0.750737,-0.765819,-1.000000,-0.769552,-0.627331,-0.656540,-0.725678,-0.681662,-0.743028,-0.755253,-0.755958,-0.741608,-0.698674,-0.690544,-0.640716,-0.739454,-0.703107,-0.739311,-0.759762,-0.636958,-0.605127,-0.644738,-0.707551,-0.640675,-0.750202,-0.761972
-0.808078,-0.793558,-0.746160,-0.758416,-0.700203,-0.769684,-0.762919,-0.777863,-1.000000,-0.779989,-0.634942,-0.695153,-0.752059,-0.718488,-0.769390,-0.783596,-0.788740,-0.768746,-0.715084,-0.703358,-0.640753,-0.748742,-0.717499,-0.744238,-0.754432,-0.630051,-0.602861,-0.644867,-0.721028,-0.680437,-0.770704,-0.786326
-0.808104,-0.795051,-0.745543,-0.761739,-0.699425,-0.773238,-0.772735,-0.785372,-1.000000,-0.787119,-0.635030,-0.698234,-0.768829,-0.719315,-0.772479,-0.785232,-0.781024,-0.755614,-0.718945,-0.709208,-0.646646,-0.753321,-0.723455,-0.749977,-0.758654,-0.632397,-0.599594,-0.645837,-0.739183,-0.685876,-0.770692,-0.787663
-0.814588,-0.800970,-0.740636,-0.752473,-0.699367,-0.769173,-0.765223,-0.782037,-1.000000,-0.783873,-0.634765,-0.688972,-0.772918,-0.719271,-0.773297,-0.787955,-0.788283,-0.763258,-0.715556,-0.709914,-0.657483,-0.759808,-0.708613,-0.741450,-0.758640,-0.634007,-0.600790,-0.630471,-0.668464,-0.670368,-0.769091,-0.789853
-0.812252,-0.799290,-0.752984,-0.761367,-0.698570,-0.768148,-0.769942,-0.783662,-1.000000,-0.784425,-0.644956,-0.693460,-0.766219,-0.705338,-0.761918,-0.779335,-0.789695,-0.771495,-0.728367,-0.715038,-0.660427,-0.755102,-0.712113,-0.744303,-0.756249,-0.636138,-0.603087,-0.637280,-0.751624,-0.676081,-0.762369,-0.781556
-0.797489,-0.782697,-0.738916,-0.745746,-0.685790,-0.762510,-0.761672,-0.769444,-1.000000,-0.763975,-0.610720,-0.668889,-0.723113,-0.703209,-0.762877,-0.776172,-0.777805,-0.755870,-0.720402,-0.701340,-0.651830,-0.749493,-0.713453,-0.731962,-0.734359,-0.608718,-0.591194,-0.620956,-0.739217,-0.679298,-0.766296,-0.783260
-0.800639,-0.791863,-0.739144,-0.755854,-0.683570,-0.743696,-0.731790,-0.725015,-1.000000,-0.770086,-0.623039,-0.648888,-0.704139,-0.685019,-0.753041,-0.767351,-0.777368,-0.757808,-0.711173,-0.713833,-0.643313,-0.733038,-0.678124,-0.674220,-0.704312,-0.609081,-0.573046,-0.605604,-0.706428,-0.666078,-0.752763,-0.768510
-0.795624,-0.790678,-0.746187,-0.749692,-0.680477,-0.730275,-0.710906,-0.736780,-1.000000,-0.755568,-0.617369,-0.663805,-0.725430,-0.696472,-0.752209,-0.765621,-0.776401,-0.758120,-0.719767,-0.705696,-0.651356,-0.729647,-0.648418,-0.687415,-0.709975,-0.584695,-0.563975,-0.605018,-0.702053,-0.666256,-0.749347,-0.767900
-0.797497,-0.790873,-0.747902,-0.750805,-0.686206,-0.732907,-0.714507,-0.728097,-1.000000,-0.743006,-0.600955,-0.656678,-0.698597,-0.695517,-0.757270,-0.771964,-0.780070,-0.760904,-0.719980,-0.703854,-0.651081,-0.728113,-0.668789,-0.697818,-0.680020,-0.574066,-0.564917,-0.623433,-0.721289,-0.673854,-0.759440,-0.777630
-0.791921,-0.781299,-0.730544,-0.719015,-0.638941,-0.732612,-0.732384,-0.751274,-1.000000,-0.748359,-0.593208,-0.635088,-0.688593,-0.693387,-0.747806,-0.755639,-0.758308,-0.743361,-0.699346,-0.658930,-0.634579,-0.729694,-0.669045,-0.700020,-0.722755,-0.572772,-0.534228,-0.562146,-0.700415,-0.670328,-0.752233,-0.764070
-0.801866,-0.790936,-0.744303,-0.759535,-0.692241,-0.739762,-0.714342,-0.748987,-1.000000,-0.766435,-0.608554,-0.677866,-0.708131,-0.680244,-0.744082,-0.761212,-0.774202,-0.759449,-0.723666,-0.728549,-0.648507,-0.737654,-0.654683,-0.701473,-0.737467,-0.591216,-0.551892,-0.605788,-0.739989,-0.669760,-0.745855,-0.768343
-0.778172,-0.765126,-0.718507,-0.740561,-0.660246,-0.720324,-0.703487,-0.733417,-1.000000,-0.725761,-0.573305,-0.632302,-0.632551,-0.659118,-0.731442,-0.745051,-0.752560,-0.733786,-0.688487,-0.714033,-0.624784,-0.697478,-0.651329,-0.695179,-0.728568,-0.582723,-0.534578,-0.570914,-0.688734,-0.630640,-0.728204,-0.744760
-0.783114,-0.780230,-0.733711,-0.752047,-0.685228,-0.736080,-0.717486,-0.749473,-1.000000,-0.758031,-0.600025,-0.665128,-0.704298,-0.662047,-0.732026,-0.748165,-0.754659,-0.737780,-0.720241,-0.693096,-0.652393,-0.725244,-0.652072,-0.690419,-0.725008,-0.581935,-0.534243,-0.595178,-0.732327,-0.653417,-0.726518,-0.744278
-0.764777,-0.739550,-0.704100,-0.720087,-0.643519,-0.706259,-0.690849,-0.731416,-1.000000,-0.751127,-0.583567,-0.628864,-0.687921,-0.656458,-0.722077,-0.730368,-0.736761,-0.724339,-0.699183,-0.691673,-0.621501,-0.695549,-0.605842,-0.667108,-0.706102,-0.572611,-0.533338,-0.589006,-0.730417,-0.646293,-0.726570,-0.735591
-0.776618,-0.751621,-0.710672,-0.750941,-0.673011,-0.721788,-0.703561,-0.727000,-1.000000,-0.757365,-0.608238,-0.666905,-0.690460,-0.655282,-0.732239,-0.746678,-0.749569,-0.732698,-0.687926,-0.712105,-0.636753,-0.714377,-0.637835,-0.688250,-0.723484,-0.590443,-0.550150,-0.606465,-0.729758,-0.650794,-0.735717,-0.751826
-0.787047,-0.773990,-0.730578,-0.727836,-0.672580,-0.726888,-0.707101,-0.722874,-1.000000,-0.752896,-0.585059,-0.656188,-0.682393,-0.643405,-0.737544,-0.752282,-0.760044,-0.747694,-0.733155,-0.717730,-0.646471,-0.722358,-0.640619,-0.677293,-0.691992,-0.536189,-0.503918,-0.580933,-0.732725,-0.664055,-0.743293,-0.759322
-0.794303,-0.785308,-0.738732,-0.751713,-0.695852,-0.728072,-0.714024,-0.736870,-1.000000,-0.746724,-0.594934,-0.635164,-0.669017,-0.656788,-0.737643,-0.754956,-0.767601,-0.754027,-0.721195,-0.712866,-0.606950,-0.725276,-0.626086,-0.674974,-0.712836,-0.576275,-0.547598,-0.596873,-0.704187,-0.662392,-0.744186,-0.762105
-0.797565,-0.788876,-0.745768,-0.760526,-0.696672,-0.731072,-0.720487,-0.742418,-1.000000,-0.748186,-0.571512,-0.621735,-0.656805,-0.642936,-0.725166,-0.747219,-0.766261,-0.752787,-0.735055,-0.736022,-0.648293,-0.730765,-0.649249,-0.696185,-0.718766,-0.574987,-0.529970,-0.575522,-0.710114,-0.663225,-0.734092,-0.755870
-0.797542,-0.788721,-0.744929,-0.757543,-0.692875,-0.736942,-0.723323,-0.745846,-1.000000,-0.725776,-0.566328,-0.598394,-0.641693,-0.659935,-0.740559,-0.755102,-0.768568,-0.753161,-0.725639,-0.723507,-0.647933,-0.732448,-0.650980,-0.699113,-0.721896,-0.583078,-0.535899,-0.582522,-0.692477,-0.660567,-0.740757,-0.759799
-0.797923,-0.789795,-0.741657,-0.761193,-0.699664,-0.732644,-0.719233,-0.744020,-1.000000,-0.722071,-0.497879,-0.542509,-0.609085,-0.648935,-0.740965,-0.756354,-0.771732,-0.757087,-0.737396,-0.728476,-0.656718,-0.731938,-0.646674,-0.685921,-0.703687,-0.532300,-0.483532,-0.547255,-0.657239,-0.644293,-0.737866,-0.758120
-0.785340,-0.777173,-0.725866,-0.750622,-0.685226,-0.723399,-0.709351,-0.729939,-1.000000,-0.735464,-0.578111,-0.629737,-0.653951,-0.645038,-0.724308,-0.741101,-0.757307,-0.744020,-0.724399,-0.724663,-0.644695,-0.720395,-0.626155,-0.674330,-0.708660,-0.564457,-0.523378,-0.576514,-0.698349,-0.640837,-0.724094,-0.746311
-0.787176,-0.781549,-0.743306,-0.759809,-0.698358,-0.728483,-0.712099,-0.734240,-1.000000,-0.730642,-0.574010,-0.628138,-0.651790,-0.636597,-0.736214,-0.752181,-0.767753,-0.755821,-0.735480,-0.727276,-0.652070,-0.727703,-0.628336,-0.681702,-0.705519,-0.568996,-0.518168,-0.576878,-0.709762,-0.654714,-0.736845,-0.755718
-0.776462,-0.769253,-0.736398,-0.749710,-0.677220,-0.706905,-0.701410,-0.711856,-1.000000,-0.709423,-0.547791,-0.596025,-0.603949,-0.627988,-0.716118,-0.735627,-0.753244,-0.741864,-0.719801,-0.712000,-0.644939,-0.707458,-0.626956,-0.664766,-0.695498,-0.566002,-0.498219,-0.558039,-0.700281,-0.648697,-0.717367,-0.738423
-0.793018,-0.788857,-0.739386,-0.753364,-0.700976,-0.726097,-0.709497,-0.729008,-1.000000,-0.725402,-0.562078,-0.605447,-0.642621,-0.646827,-0.728965,-0.745324,-0.766322,-0.754122,-0.726937,-0.721315,-0.655618,-0.723429,-0.630168,-0.673043,-0.699367,-0.567932,-0.504730,-0.543238,-0.701572,-0.649205,-0.732392,-0.752390
-0.793969,-0.788748,-0.739472,-0.758099,-0.702848,-0.722988,-0.709755,-0.730133,-1.000000,-0.734220,-0.570320,-0.616353,-0.650839,-0.651977,-0.734801,-0.750177,-0.769627,-0.758452,-0.732137,-0.730670,-0.658521,-0.723751,-0.633092,-0.680957,-0.705690,-0.573962,-0.517179,-0.574692,-0.702627,-0.659088,-0.735992,-0.755627
-0.795612,-0.790648,-0.749177,-0.767185,-0.710193,-0.730531,-0.715180,-0.738155,-1.000000,-0.732061,-0.577660,-0.610536,-0.645686,-0.651218,-0.733224,-0.750129,-0.770354,-0.759140,-0.749694,-0.739410,-0.676772,-0.731541,-0.636926,-0.679444,-0.712256,-0.573816,-0.522366,-0.578944,-0.711452,-0.650101,-0.732128,-0.754819
-0.795576,-0.790488,-0.751066,-0.765692,-0.705660,-0.725620,-0.714792,-0.741050,-1.000000,-0.731548,-0.567618,-0.614925,-0.645124,-0.637255,-0.735876,-0.755293,-0.772185,-0.758141,-0.740209,-0.740570,-0.673967,-0.730444,-0.637670,-0.683655,-0.700936,-0.561158,-0.508172,-0.573548,-0.698792,-0.655490,-0.734168,-0.760462
-0.773755,-0.775033,-0.739676,-0.757295,-0.697876,-0.717167,-0.693900,-0.721971,-1.000000,-0.689589,-0.515988,-0.556773,-0.563730,-0.610078,-0.709380,-0.728642,-0.757310,-0.746055,-0.726706,-0.730272,-0.673924,-0.716034,-0.608738,-0.659572,-0.685115,-0.534499,-0.495271,-0.564644,-0.640915,-0.636033,-0.707886,-0.727069
-0.762360,-0.764897,-0.717272,-0.730750,-0.666383,-0.694740,-0.666929,-0.658875,-1.000000,-0.689316,-0.520400,-0.544339,-0.574508,-0.585230,-0.701371,-0.724901,-0.753658,-0.749712,-0.722434,-0.710547,-0.671703,-0.694455,-0.594930,-0.609926,-0.665314,-0.536383,-0.480355,-0.554212,-0.616923,-0.559121,-0.691725,-0.721904
-0.788302,-0.786466,-0.748837,-0.756602,-0.706896,-0.724762,-0.701375,-0.713648,-1.000000,-0.702622,-0.542673,-0.581122,-0.613616,-0.631372,-0.729308,-0.746448,-0.762961,-0.749389,-0.737321,-0.727647,-0.675048,-0.721902,-0.619541,-0.664129,-0.671333,-0.545939,-0.497765,-0.563927,-0.666475,-0.638777,-0.727790,-0.750435
-0.789731,-0.783301,-0.742149,-0.755419,-0.703655,-0.724246,-0.701374,-0.724712,-1.000000,-0.709465,-0.540648,-0.607124,-0.618653,-0.652123,-0.726901,-0.741387,-0.754141,-0.737180,-0.737239,-0.731360,-0.673203,-0.716958,-0.611419,-0.662824,-0.673962,-0.532094,-0.495191,-0.559790,-0.671465,-0.662869,-0.728182,-0.746473
-0.791445,-0.787840,-0.744966,-0.752629,-0.702463,-0.715504,-0.697081,-0.712186,-1.000000,-0.710806,-0.510619,-0.584698,-0.633058,-0.605846,-0.717001,-0.740571,-0.762259,-0.749086,-0.739454,-0.733609,-0.674681,-0.718817,-0.614180,-0.649768,-0.668368,-0.494101,-0.464053,-0.553777,-0.706425,-0.660602,-0.723709,-0.747677
-0.791420,-0.788487,-0.747641,-0.756645,-0.708846,-0.727105,-0.700645,-0.722065,-1.000000,-0.699208,-0.497035,-0.577190,-0.586330,-0.620638,-0.732117,-0.750715,-0.767938,-0.754088,-0.741784,-0.733991,-0.673902,-0.723970,-0.613341,-0.643756,-0.654508,-0.506830,-0.456177,-0.547530,-0.680841,-0.653220,-0.730052,-0.755014
-0.779371,-0.776505,-0.718035,-0.746033,-0.705554,-0.723164,-0.689468,-0.709026,-1.000000,-0.702449,-0.521923,-0.591927,-0.655243,-0.614516,-0.716026,-0.736658,-0.752918,-0.739785,-0.705948,-0.720688,-0.664902,-0.717003,-0.603138,-0.634875,-0.675335,-0.517912,-0.482208,-0.563720,-0.710095,-0.654057,-0.723727,-0.739729
-0.782451,-0.782855,-0.732882,-0.747437,-0.704286,-0.704684,-0.660897,-0.689246,-1.000000,-0.718802,-0.532844,-0.609580,-0.619514,-0.596863,-0.709193,-0.732671,-0.757262,-0.740941,-0.704773,-0.724246,-0.666748,-0.700778,-0.583937,-0.600030,-0.667009,-0.495231,-0.455202,-0.550803,-0.675784,-0.626855,-0.705755,-0.731851
-0.791623,-0.788710,-0.744103,-0.750059,-0.711700,-0.744944,-0.722648,-0.731272,-1.000000,-0.714858,-0.547346,-0.614425,-0.651267,-0.630484,-0.733954,-0.753511,-0.770758,-0.756457,-0.733921,-0.724001,-0.679105,-0.740332,-0.658556,-0.696098,-0.707121,-0.551184,-0.501906,-0.579758,-0.679481,-0.659890,-0.730138,-0.753793
-0.786811,-0.781214,-0.734305,-0.745999,-0.711604,-0.751168,-0.737963,-0.740982,-1.000000,-0.715258,-0.552081,-0.618128,-0.665251,-0.635512,-0.736181,-0.754224,-0.767185,-0.752706,-0.727633,-0.712193,-0.674145,-0.734902,-0.662510,-0.697929,-0.704457,-0.552073,-0.507215,-0.582114,-0.690919,-0.659332,-0.730545,-0.752479
-0.780365,-0.771483,-0.712616,-0.725642,-0.663252,-0.732202,-0.723062,-0.730622,-1.000000,-0.719310,-0.554306,-0.628004,-0.674109,-0.625756,-0.718325,-0.733488,-0.738477,-0.722342,-0.702697,-0.693222,-0.636757,-0.712999,-0.639217,-0.672965,-0.698179,-0.523429,-0.473310,-0.501958,-0.716053,-0.661621,-0.727707,-0.743771
-0.789008,-0.780669,-0.738088,-0.741843,-0.702305,-0.735961,-0.700518,-0.723381,-1.000000,-0.698345,-0.551649,-0.623996,-0.677110,-0.633669,-0.714252,-0.732413,-0.756452,-0.741646,-0.720399,-0.698111,-0.631825,-0.716934,-0.608321,-0.657726,-0.689704,-0.549322,-0.509837,-0.585040,-0.726532,-0.660185,-0.718655,-0.738419
-0.786360,-0.784997,-0.729618,-0.752478,-0.708953,-0.743148,-0.716506,-0.728203,-1.000000,-0.712312,-0.561675,-0.618678,-0.663813,-0.636809,-0.732366,-0.752195,-0.768893,-0.752728,-0.720628,-0.727088,-0.655707,-0.717032,-0.622254,-0.667866,-0.705647,-0.552524,-0.521077,-0.585309,-0.693299,-0.657074,-0.724066,-0.748136
-0.795059,-0.786661,-0.744766,-0.752938,-0.693126,-0.762693,-0.743529,-0.738874,-1.000000,-0.715515,-0.562120,-0.620175,-0.630991,-0.607540,-0.732652,-0.753089,-0.775226,-0.760844,-0.738733,-0.716377,-0.665799,-0.752494,-0.638533,-0.688104,-0.703797,-0.557180,-0.533416,-0.603335,-0.718087,-0.668896,-0.726313,-0.749575
-0.759763,-0.756123,-0.727075,-0.731856,-0.712023,-0.737914,-0.722254,-0.722079,-1.000000,-0.704492,-0.540048,-0.608668,-0.643977,-0.582286,-0.693642,-0.714917,-0.730976,-0.708031,-0.706016,-0.672408,-0.666244,-0.723269,-0.628119,-0.664706,-0.686097,-0.550380,-0.517180,-0.592372,-0.705074,-0.644239,-0.695315,-0.712672
-0.799659,-0.797470,-0.750222,-0.764753,-0.729807,-0.765990,-0.745832,-0.749425,-1.000000,-0.731960,-0.568688,-0.644509,-0.676611,-0.626831,-0.734234,-0.758354,-0.774703,-0.761511,-0.727332,-0.732308,-0.622374,-0.758576,-0.668808,-0.700342,-0.723776,-0.569286,-0.514869,-0.593318,-0.711860,-0.649184,-0.734205,-0.762716
-0.796398,-0.792668,-0.751530,-0.727186,-0.721640,-0.764753,-0.739718,-0.741707,-1.000000,-0.732298,-0.570547,-0.647027,-0.666340,-0.588196,-0.715780,-0.745131,-0.767342,-0.752751,-0.742350,-0.726546,-0.685170,-0.756398,-0.664430,-0.688179,-0.720391,-0.567642,-0.524147,-0.597044,-0.716214,-0.635178,-0.721578,-0.754089
-0.795589,-0.794379,-0.740955,-0.760675,-0.717335,-0.762407,-0.745096,-0.739680,-1.000000,-0.708828,-0.539039,-0.634266,-0.663810,-0.619623,-0.728214,-0.746925,-0.764599,-0.750989,-0.731260,-0.730176,-0.678248,-0.747733,-0.668850,-0.694492,-0.726152,-0.548109,-0.516831,-0.603799,-0.718854,-0.650254,-0.732332,-0.756085
-0.790567,-0.787050,-0.739079,-0.726041,-0.673950,-0.729349,-0.722034,-0.735428,-1.000000,-0.692873,-0.525430,-0.592965,-0.653794,-0.600572,-0.699103,-0.723536,-0.759902,-0.739666,-0.716628,-0.667400,-0.619802,-0.697395,-0.624612,-0.675992,-0.703599,-0.528872,-0.507527,-0.581953,-0.686045,-0.638185,-0.702643,-0.730991
-0.795337,-0.791417,-0.742261,-0.746610,-0.714838,-0.753751,-0.738417,-0.740128,-1.000000,-0.721521,-0.571371,-0.631768,-0.668432,-0.616476,-0.719448,-0.743890,-0.753578,-0.741022,-0.729573,-0.720647,-0.676295,-0.738066,-0.657140,-0.691030,-0.717462,-0.555033,-0.535894,-0.592984,-0.713872,-0.652418,-0.727926,-0.755570
-0.758124,-0.760953,-0.719735,-0.708756,-0.662319,-0.706928,-0.698646,-0.689253,-1.000000,-0.688495,-0.524249,-0.587865,-0.658180,-0.596208,-0.674446,-0.698811,-0.723169,-0.694924,-0.683315,-0.689403,-0.621550,-0.698457,-0.623342,-0.613858,-0.655102,-0.499990,-0.482216,-0.545498,-0.662592,-0.646076,-0.685215,-0.715460
-0.793420,-0.791991,-0.749171,-0.745687,-0.698413,-0.759923,-0.755067,-0.748862,-1.000000,-0.732769,-0.579969,-0.649260,-0.685150,-0.627604,-0.712953,-0.732633,-0.753198,-0.732016,-0.713147,-0.722467,-0.669320,-0.748611,-0.686122,-0.709167,-0.737811,-0.587694,-0.527844,-0.600210,-0.719003,-0.666867,-0.711759,-0.741857
-0.788468,-0.790098,-0.753925,-0.744177,-0.697296,-0.750813,-0.755777,-0.736212,-1.000000,-0.708908,-0.583423,-0.647297,-0.686594,-0.628587,-0.719163,-0.738281,-0.761863,-0.745070,-0.712187,-0.712782,-0.654604,-0.740188,-0.684422,-0.714484,-0.724100,-0.592531,-0.566796,-0.615480,-0.720539,-0.674747,-0.719950,-0.739897
-0.781080,-0.786466,-0.752869,-0.744622,-0.693106,-0.741537,-0.745853,-0.731032,-1.000000,-0.707825,-0.573718,-0.648182,-0.660182,-0.591413,-0.697497,-0.724547,-0.754106,-0.737435,-0.712553,-0.714919,-0.654984,-0.731259,-0.671237,-0.697716,-0.707231,-0.562804,-0.551289,-0.619962,-0.712592,-0.657119,-0.702232,-0.726735
-0.795986,-0.793940,-0.756872,-0.741294,-0.693996,-0.729703,-0.731011,-0.731423,-1.000000,-0.698789,-0.514522,-0.594686,-0.653794,-0.604202,-0.716185,-0.741964,-0.767274,-0.745905,-0.721676,-0.707516,-0.662071,-0.720851,-0.648639,-0.684281,-0.703118,-0.537983,-0.488914,-0.554590,-0.673761,-0.651100,-0.720213,-0.747222
-0.791463,-0.785351,-0.753868,-0.744851,-0.703873,-0.751241,-0.750560,-0.743658,-1.000000,-0.727560,-0.555445,-0.629992,-0.685652,-0.606598,-0.717455,-0.742652,-0.764066,-0.741470,-0.722254,-0.723217,-0.656232,-0.729652,-0.672469,-0.706723,-0.725684,-0.568731,-0.538251,-0.605995,-0.719453,-0.656253,-0.718388,-0.747338
-0.791905,-0.789695,-0.750622,-0.742655,-0.661324,-0.749056,-0.754595,-0.737747,-1.000000,-0.718020,-0.552068,-0.624012,-0.687695,-0.607509,-0.703842,-0.726994,-0.757268,-0.742881,-0.718294,-0.706859,-0.640725,-0.734238,-0.681534,-0.711035,-0.731494,-0.576439,-0.526396,-0.592685,-0.723497,-0.646272,-0.709299,-0.738260
-0.791511,-0.788570,-0.742287,-0.741003,-0.688622,-0.753378,-0.745167,-0.727349,-1.000000,-0.722117,-0.577115,-0.635937,-0.679814,-0.599074,-0.712662,-0.736056,-0.764460,-0.746629,-0.710637,-0.712316,-0.647131,-0.740785,-0.674825,-0.705177,-0.723241,-0.579557,-0.546461,-0.599884,-0.695796,-0.658468,-0.718671,-0.743849
-0.786840,-0.784746,-0.743621,-0.753222,-0.699694,-0.738923,-0.740770,-0.729030,-1.000000,-0.706042,-0.565939,-0.628816,-0.647645,-0.589615,-0.694498,-0.720876,-0.756453,-0.741372,-0.691793,-0.703723,-0.665535,-0.720145,-0.665895,-0.695431,-0.713189,-0.557389,-0.538827,-0.608353,-0.687481,-0.632782,-0.696370,-0.721783
-0.797305,-0.786326,-0.758612,-0.745846,-0.687096,-0.736378,-0.750521,-0.727153,-1.000000,-0.737512,-0.587519,-0.632017,-0.668762,-0.577895,-0.705598,-0.737462,-0.760275,-0.733299,-0.726914,-0.716284,-0.660687,-0.720078,-0.679788,-0.691492,-0.727096,-0.591153,-0.548062,-0.603029,-0.689495,-0.650294,-0.715817,-0.747559
-0.808220,-0.799548,-0.762976,-0.753340,-0.703134,-0.767305,-0.769905,-0.730690,-1.000000,-0.681923,-0.570327,-0.582751,-0.617019,-0.563928,-0.710849,-0.743504,-0.778150,-0.758658,-0.734233,-0.703265,-0.662280,-0.753159,-0.701948,-0.720132,-0.671408,-0.590218,-0.531016,-0.548933,-0.666963,-0.619050,-0.715594,-0.750729
-0.804009,-0.796233,-0.757817,-0.753734,-0.698885,-0.766706,-0.773254,-0.749861,-1.000000,-0.722670,-0.560310,-0.586302,-0.606331,-0.557118,-0.707325,-0.740213,-0.776807,-0.762092,-0.730637,-0.717302,-0.661068,-0.748946,-0.715561,-0.729001,-0.744744,-0.592173,-0.521297,-0.569434,-0.650500,-0.613649,-0.710861,-0.747434
-0.789143,-0.783191,-0.745423,-0.746961,-0.684236,-0.766403,-0.756452,-0.725667,-1.000000,-0.721130,-0.572511,-0.609832,-0.635110,-0.566202,-0.702457,-0.736683,-0.769684,-0.753437,-0.728158,-0.716388,-0.659202,-0.749308,-0.710542,-0.728852,-0.746550,-0.604932,-0.548865,-0.598644,-0.697605,-0.623879,-0.704342,-0.741319
-0.800907,-0.792749,-0.747163,-0.743073,-0.666272,-0.746669,-0.758239,-0.733185,-1.000000,-0.734606,-0.604933,-0.658091,-0.702865,-0.603587,-0.700908,-0.731524,-0.764331,-0.750409,-0.718183,-0.705628,-0.659699,-0.732466,-0.699295,-0.704165,-0.724407,-0.581398,-0.550027,-0.603620,-0.721649,-0.624229,-0.706274,-0.739667
-0.788982,-0.782258,-0.746492,-0.739758,-0.665831,-0.739358,-0.748578,-0.734975,-1.000000,-0.749162,-0.597361,-0.636428,-0.683718,-0.615471,-0.704179,-0.729050,-0.750506,-0.729145,-0.721848,-0.712718,-0.641490,-0.733956,-0.696464,-0.720807,-0.748304,-0.604795,-0.555308,-0.612163,-0.700062,-0.622252,-0.702891,-0.730850
-0.796795,-0.789634,-0.747938,-0.745783,-0.672454,-0.746555,-0.764134,-0.735167,-1.000000,-0.746604,-0.632162,-0.666314,-0.695759,-0.611900,-0.705368,-0.734990,-0.765678,-0.749182,-0.722840,-0.707531,-0.641647,-0.731850,-0.705812,-0.723242,-0.749525,-0.620460,-0.578655,-0.609706,-0.684983,-0.612275,-0.707307,-0.739513
-0.798096,-0.790605,-0.757849,-0.748664,-0.668225,-0.743997,-0.765913,-0.745496,-1.000000,-0.756438,-0.620833,-0.663929,-0.700894,-0.603286,-0.709596,-0.737118,-0.761724,-0.741945,-0.727122,-0.722305,-0.644361,-0.734650,-0.701930,-0.724119,-0.750804,-0.609390,-0.563318,-0.611603,-0.711173,-0.626679,-0.712720,-0.742615
-0.776900,-0.775521,-0.745265,-0.740777,-0.666815,-0.746258,-0.757286,-0.737135,-1.000000,-0.733401,-0.574807,-0.639272,-0.697058,-0.611981,-0.687737,-0.715723,-0.741383,-0.723861,-0.719672,-0.708823,-0.644318,-0.728812,-0.688585,-0.713511,-0.747237,-0.588686,-0.519339,-0.580915,-0.695539,-0.608756,-0.685079,-0.716688
-0.782085,-0.776860,-0.742820,-0.739907,-0.642769,-0.742043,-0.760256,-0.738965,-1.000000,-0.753672,-0.624481,-0.668048,-0.706368,-0.605498,-0.684411,-0.711685,-0.740369,-0.719438,-0.712774,-0.684996,-0.590752,-0.708164,-0.696282,-0.722091,-0.749164,-0.591547,-0.560395,-0.605945,-0.711989,-0.608078,-0.689867,-0.720998
-0.775880,-0.770125,-0.748791,-0.745525,-0.678566,-0.747845,-0.754476,-0.736638,-1.000000,-0.730273,-0.621639,-0.659270,-0.695277,-0.605062,-0.703412,-0.728784,-0.746846,-0.718855,-0.723504,-0.718863,-0.669699,-0.740077,-0.697516,-0.725954,-0.751716,-0.612108,-0.572196,-0.618756,-0.710213,-0.618448,-0.703603,-0.730841
-0.776915,-0.775274,-0.747147,-0.740950,-0.673881,-0.742533,-0.732839,-0.732957,-1.000000,-0.732426,-0.560948,-0.576573,-0.663068,-0.598080,-0.703940,-0.728267,-0.748048,-0.728724,-0.724809,-0.719341,-0.664687,-0.735075,-0.671108,-0.705693,-0.736461,-0.580745,-0.536875,-0.580933,-0.675112,-0.618281,-0.704054,-0.727597
-0.769276,-0.763778,-0.749196,-0.741945,-0.673208,-0.730219,-0.734035,-0.734295,-1.000000,-0.731757,-0.591139,-0.620445,-0.666803,-0.605245,-0.702308,-0.725721,-0.744488,-0.720276,-0.719002,-0.707579,-0.659178,-0.714270,-0.645990,-0.701604,-0.741597,-0.593466,-0.548295,-0.606261,-0.673301,-0.617190,-0.701776,-0.722396
-0.786909,-0.783844,-0.755496,-0.752545,-0.668676,-0.745265,-0.755558,-0.735364,-1.000000,-0.718169,-0.579354,-0.610230,-0.672265,-0.616677,-0.711604,-0.734135,-0.757968,-0.739826,-0.725996,-0.709285,-0.645901,-0.728681,-0.691945,-0.717753,-0.737501,-0.592151,-0.531022,-0.587316,-0.701635,-0.628721,-0.711235,-0.729727
-0.793179,-0.785663,-0.754800,-0.748602,-0.676299,-0.755352,-0.750527,-0.705734,-1.000000,-0.719839,-0.605652,-0.642048,-0.674714,-0.612168,-0.714202,-0.738752,-0.762372,-0.741834,-0.730985,-0.713937,-0.676016,-0.740870,-0.698625,-0.678813,-0.692137,-0.569594,-0.550759,-0.594153,-0.684989,-0.608377,-0.714242,-0.739144
-0.805203,-0.800506,-0.762643,-0.752487,-0.677548,-0.758061,-0.758950,-0.742667,-1.000000,-0.751757,-0.616788,-0.656417,-0.709190,-0.617052,-0.714823,-0.741267,-0.772745,-0.754807,-0.722971,-0.721162,-0.666499,-0.738937,-0.698873,-0.721257,-0.741307,-0.605696,-0.569164,-0.622999,-0.715612,-0.610122,-0.711419,-0.742412
-0.786448,-0.784254,-0.749731,-0.743855,-0.671480,-0.751268,-0.755114,-0.733718,-1.000000,-0.713465,-0.535095,-0.594289,-0.679823,-0.610027,-0.711053,-0.733701,-0.759036,-0.741271,-0.726277,-0.719885,-0.673344,-0.738268,-0.695822,-0.716583,-0.733834,-0.554426,-0.525946,-0.605063,-0.718152,-0.630237,-0.713087,-0.738405
-0.780049,-0.770100,-0.738315,-0.741362,-0.654594,-0.739559,-0.752701,-0.734156,-1.000000,-0.756110,-0.621272,-0.659216,-0.710627,-0.630041,-0.716733,-0.736189,-0.750140,-0.721627,-0.721353,-0.644125,-0.584707,-0.709534,-0.694288,-0.706976,-0.725114,-0.611585,-0.563294,-0.613218,-0.722538,-0.629307,-0.713030,-0.735408
-0.766996,-0.747923,-0.749047,-0.768140,-0.673133,-0.760118,-0.745157,-0.732413,-1.000000,-0.749169,-0.619388,-0.661662,-0.699686,-0.608377,-0.697364,-0.723634,-0.726808,-0.702449,-0.751876,-0.754839,-0.689650,-0.750351,-0.691898,-0.708304,-0.735149,-0.601472,-0.559655,-0.632238,-0.710414,-0.607894,-0.692874,-0.722012
-0.779333,-0.778274,-0.748221,-0.767388,-0.694508,-0.753485,-0.747969,-0.736743,-1.000000,-0.765904,-0.612478,-0.653039,-0.708155,-0.630120,-0.708972,-0.726655,-0.727404,-0.708583,-0.746167,-0.747888,-0.705138,-0.742356,-0.673094,-0.695926,-0.716687,-0.574578,-0.533642,-0.611283,-0.725743,-0.630180,-0.703103,-0.725376
-0.781395,-0.768496,-0.730990,-0.770193,-0.704404,-0.762286,-0.712847,-0.728675,-1.000000,-0.760162,-0.610999,-0.651204,-0.698619,-0.617335,-0.710574,-0.730409,-0.737660,-0.710830,-0.731264,-0.743360,-0.704319,-0.759317,-0.632361,-0.675230,-0.718852,-0.580252,-0.548784,-0.598950,-0.714761,-0.620476,-0.712468,-0.735220
-0.805152,-0.795252,-0.764001,-0.777695,-0.703869,-0.775620,-0.755827,-0.743105,-1.000000,-0.759402,-0.616076,-0.645942,-0.700449,-0.607021,-0.721470,-0.745696,-0.764376,-0.745742,-0.757759,-0.754965,-0.686974,-0.756136,-0.699001,-0.712964,-0.718820,-0.608468,-0.572782,-0.627283,-0.706677,-0.625228,-0.719254,-0.746930
-0.803640,-0.795130,-0.761436,-0.770682,-0.702037,-0.762059,-0.737098,-0.732421,-1.000000,-0.756305,-0.613352,-0.655042,-0.698627,-0.614984,-0.716261,-0.740809,-0.755331,-0.733367,-0.755561,-0.750737,-0.709527,-0.746361,-0.674100,-0.694891,-0.726207,-0.574401,-0.560365,-0.626766,-0.709490,-0.617248,-0.711994,-0.740280
-0.809237,-0.799877,-0.765173,-0.783629,-0.712080,-0.778597,-0.758434,-0.748704,-1.000000,-0.760607,-0.614555,-0.650362,-0.699448,-0.639915,-0.727175,-0.750424,-0.764425,-0.746339,-0.754394,-0.757741,-0.714278,-0.759643,-0.704613,-0.715585,-0.742267,-0.614193,-0.567777,-0.615860,-0.696755,-0.625165,-0.726113,-0.750405
-0.798436,-0.791745,-0.757253,-0.771251,-0.700179,-0.764167,-0.744522,-0.736716,-1.000000,-0.738308,-0.567016,-0.608661,-0.670584,-0.624289,-0.727919,-0.749346,-0.762515,-0.745345,-0.739645,-0.736432,-0.673568,-0.743255,-0.696138,-0.710504,-0.720235,-0.597650,-0.556972,-0.619597,-0.694591,-0.628322,-0.721798,-0.744789
-0.804404,-0.799820,-0.755376,-0.773603,-0.703890,-0.771406,-0.750390,-0.732625,-1.000000,-0.749029,-0.596670,-0.630510,-0.672007,-0.613414,-0.722614,-0.746516,-0.763209,-0.747871,-0.747734,-0.750045,-0.697086,-0.762335,-0.696811,-0.706352,-0.727765,-0.584095,-0.546498,-0.607659,-0.705191,-0.611403,-0.712665,-0.741857
-0.804539,-0.794859,-0.754218,-0.782208,-0.711380,-0.775041,-0.746833,-0.736175,-1.000000,-0.747336,-0.629599,-0.665535,-0.702813,-0.636879,-0.732131,-0.753163,-0.764183,-0.745395,-0.743451,-0.757477,-0.690333,-0.760659,-0.683194,-0.695240,-0.736450,-0.626717,-0.587901,-0.631389,-0.716688,-0.618184,-0.724233,-0.748558
-0.803515,-0.798087,-0.764786,-0.781696,-0.715161,-0.772199,-0.754484,-0.743535,-1.000000,-0.743818,-0.620031,-0.657716,-0.699495,-0.635583,-0.730686,-0.752966,-0.765546,-0.744085,-0.748389,-0.754962,-0.704252,-0.751280,-0.693607,-0.712760,-0.739418,-0.623836,-0.578929,-0.626301,-0.689192,-0.602993,-0.721927,-0.749129
-0.793452,-0.792299,-0.765596,-0.782974,-0.697016,-0.767684,-0.753379,-0.742454,-1.000000,-0.756753,-0.629468,-0.663966,-0.698271,-0.625197,-0.718493,-0.744843,-0.744353,-0.712050,-0.736420,-0.762467,-0.694387,-0.752020,-0.694953,-0.711038,-0.743646,-0.619824,-0.591217,-0.641575,-0.733345,-0.613093,-0.707661,-0.740102
-0.792878,-0.789663,-0.752314,-0.747894,-0.682451,-0.769990,-0.751934,-0.736071,-1.000000,-0.679162,-0.586495,-0.605753,-0.638623,-0.592473,-0.717476,-0.740921,-0.756121,-0.736951,-0.739272,-0.714616,-0.683357,-0.749220,-0.691075,-0.698648,-0.700405,-0.586459,-0.555667,-0.610332,-0.690567,-0.628066,-0.713906,-0.737348
-0.774410,-0.771838,-0.727291,-0.735448,-0.675135,-0.747886,-0.735143,-0.739828,-1.000000,-0.728820,-0.558849,-0.589679,-0.642102,-0.559613,-0.691184,-0.718102,-0.738640,-0.727369,-0.713746,-0.687618,-0.647869,-0.756335,-0.672198,-0.696528,-0.728323,-0.514416,-0.531839,-0.624426,-0.692892,-0.608709,-0.687392,-0.708603
-0.757844,-0.753100,-0.723024,-0.768102,-0.701273,-0.740338,-0.715423,-0.708661,-1.000000,-0.671569,-0.542299,-0.569420,-0.593455,-0.569497,-0.663386,-0.687694,-0.723279,-0.709744,-0.708301,-0.734215,-0.682129,-0.723571,-0.649487,-0.671486,-0.676508,-0.527089,-0.524883,-0.620700,-0.658116,-0.595783,-0.640822,-0.666714
-0.782133,-0.776576,-0.740837,-0.776835,-0.714157,-0.771290,-0.746465,-0.753227,-1.000000,-0.703350,-0.597614,-0.602667,-0.678117,-0.619746,-0.720059,-0.742246,-0.756654,-0.729640,-0.728152,-0.725891,-0.681536,-0.724143,-0.679458,-0.706131,-0.718216,-0.604950,-0.575197,-0.622728,-0.709054,-0.659937,-0.720275,-0.734655
-0.804933,-0.798624,-0.775737,-0.793517,-0.733085,-0.787733,-0.755872,-0.745474,-1.000000,-0.747102,-0.625680,-0.651161,-0.698547,-0.633919,-0.745200,-0.766623,-0.777233,-0.754273,-0.734417,-0.738440,-0.712461,-0.770659,-0.703929,-0.698660,-0.720521,-0.612868,-0.602976,-0.659914,-0.721580,-0.659467,-0.742592,-0.761770
-0.804683,-0.801182,-0.779922,-0.802318,-0.736857,-0.782305,-0.755290,-0.746641,-1.000000,-0.751299,-0.629169,-0.656127,-0.691237,-0.630182,-0.739316,-0.762943,-0.776510,-0.756067,-0.749023,-0.757313,-0.699617,-0.768341,-0.704066,-0.703859,-0.722077,-0.620599,-0.598316,-0.654945,-0.721079,-0.642438,-0.736176,-0.757021
-0.821985,-0.811462,-0.778367,-0.804738,-0.738419,-0.786216,-0.748123,-0.743535,-1.000000,-0.744191,-0.629595,-0.667674,-0.684921,-0.617331,-0.746843,-0.772509,-0.789249,-0.771646,-0.752803,-0.765634,-0.712150,-0.776071,-0.700310,-0.700518,-0.720839,-0.608801,-0.580357,-0.604554,-0.720808,-0.655469,-0.747915,-0.771394
-0.804873,-0.797064,-0.770454,-0.779754,-0.718914,-0.772125,-0.742835,-0.744955,-1.000000,-0.756544,-0.613045,-0.661057,-0.702428,-0.620648,-0.727062,-0.748785,-0.768348,-0.751286,-0.734734,-0.743428,-0.685352,-0.761525,-0.678848,-0.691093,-0.716299,-0.597802,-0.571014,-0.644307,-0.741819,-0.648651,-0.724571,-0.745893
-0.808755,-0.806855,-0.774049,-0.738121,-0.688265,-0.743148,-0.751552,-0.744520,-1.000000,-0.743481,-0.587433,-0.636241,-0.665130,-0.583005,-0.735171,-0.759084,-0.780882,-0.767365,-0.739473,-0.707115,-0.662840,-0.760603,-0.697766,-0.699730,-0.709835,-0.544482,-0.509126,-0.608324,-0.728441,-0.644445,-0.740747,-0.761422
-0.806678,-0.801839,-0.778492,-0.792153,-0.729523,-0.782989,-0.751372,-0.749135,-1.000000,-0.758025,-0.627182,-0.674087,-0.716852,-0.636550,-0.750472,-0.772920,-0.780890,-0.757033,-0.749843,-0.759582,-0.700744,-0.776292,-0.693092,-0.698784,-0.721199,-0.603227,-0.578583,-0.642573,-0.744589,-0.663267,-0.752298,-0.772722
-0.813618,-0.806480,-0.773538,-0.785182,-0.730878,-0.783796,-0.768747,-0.755900,-1.000000,-0.752543,-0.632530,-0.652540,-0.715214,-0.645773,-0.753733,-0.774518,-0.785186,-0.770575,-0.745936,-0.752553,-0.692568,-0.776102,-0.723476,-0.718296,-0.723773,-0.615025,-0.598314,-0.647797,-0.753941,-0.663920,-0.752409,-0.770414
-0.800002,-0.792281,-0.761547,-0.769194,-0.713747,-0.764982,-0.756373,-0.745723,-1.000000,-0.751052,-0.656903,-0.687691,-0.715585,-0.648627,-0.752038,-0.770098,-0.775887,-0.758287,-0.736688,-0.740191,-0.678983,-0.741680,-0.708888,-0.704084,-0.718062,-0.626853,-0.606327,-0.644350,-0.728862,-0.663005,-0.750426,-0.763713
-0.811586,-0.802638,-0.772227,-0.779919,-0.731637,-0.785883,-0.771303,-0.758089,-1.000000,-0.764212,-0.661051,-0.687154,-0.727435,-0.650086,-0.751218,-0.773674,-0.784727,-0.770583,-0.750400,-0.748741,-0.698070,-0.777512,-0.732287,-0.720723,-0.730788,-0.640254,-0.618340,-0.664467,-0.741325,-0.661049,-0.751936,-0.774386
-0.816628,-0.801998,-0.770369,-0.788730,-0.727754,-0.786486,-0.771494,-0.757962,-1.000000,-0.714767,-0.639074,-0.669293,-0.723019,-0.626244,-0.741546,-0.769848,-0.786985,-0.772425,-0.752619,-0.755817,-0.693219,-0.779083,-0.732689,-0.719344,-0.701916,-0.610829,-0.589968,-0.634274,-0.721185,-0.660157,-0.749843,-0.774716
-0.814809,-0.798903,-0.771514,-0.785262,-0.733280,-0.779906,-0.766916,-0.757341,-1.000000,-0.742725,-0.633812,-0.661690,-0.695004,-0.629748,-0.751133,-0.777554,-0.789872,-0.770600,-0.752450,-0.755213,-0.682795,-0.773714,-0.725701,-0.722779,-0.729914,-0.630918,-0.593351,-0.623848,-0.714455,-0.654200,-0.754371,-0.776822
-0.798899,-0.791830,-0.768194,-0.779359,-0.721680,-0.773264,-0.758094,-0.759834,-1.000000,-0.751515,-0.641879,-0.687723,-0.726756,-0.626387,-0.740369,-0.765706,-0.780082,-0.766762,-0.753438,-0.753310,-0.676363,-0.767028,-0.706008,-0.721878,-0.731589,-0.620236,-0.598853,-0.652149,-0.731720,-0.647984,-0.744350,-0.763707
-0.787725,-0.778434,-0.750579,-0.772307,-0.717156,-0.770119,-0.762831,-0.753887,-1.000000,-0.755258,-0.649665,-0.677625,-0.741390,-0.640526,-0.739924,-0.758437,-0.761814,-0.749940,-0.734297,-0.740567,-0.679624,-0.765593,-0.707234,-0.713772,-0.709631,-0.618716,-0.603580,-0.638351,-0.765728,-0.660629,-0.738701,-0.752709
-0.790145,-0.758828,-0.762200,-0.787542,-0.716261,-0.761401,-0.745431,-0.760980,-1.000000,-0.770018,-0.665169,-0.715899,-0.747849,-0.639794,-0.746406,-0.767629,-0.747021,-0.729920,-0.735299,-0.743137,-0.680074,-0.767587,-0.690596,-0.721639,-0.730481,-0.609302,-0.587878,-0.658498,-0.761376,-0.672602,-0.757427,-0.771192
-0.815491,-0.801096,-0.764051,-0.786988,-0.727025,-0.777074,-0.765828,-0.758227,-1.000000,-0.768982,-0.664087,-0.721872,-0.745899,-0.638469,-0.750423,-0.772394,-0.787658,-0.777336,-0.742036,-0.761534,-0.693328,-0.774068,-0.724601,-0.734441,-0.738889,-0.619737,-0.605268,-0.660785,-0.769929,-0.676041,-0.759262,-0.774926
-0.814627,-0.794628,-0.760589,-0.779873,-0.712951,-0.773194,-0.773708,-0.750742,-1.000000,-0.744936,-0.621451,-0.676692,-0.727788,-0.619690,-0.739594,-0.763650,-0.785042,-0.772729,-0.738730,-0.752967,-0.684404,-0.766467,-0.724829,-0.727558,-0.713554,-0.604015,-0.582060,-0.646876,-0.750137,-0.669479,-0.750871,-0.768489
-0.807667,-0.795899,-0.756403,-0.779359,-0.716992,-0.772228,-0.775622,-0.765752,-1.000000,-0.759975,-0.650534,-0.700759,-0.723992,-0.581574,-0.710883,-0.745507,-0.772961,-0.761763,-0.733814,-0.752463,-0.687234,-0.768554,-0.720542,-0.736165,-0.741237,-0.607391,-0.593785,-0.659563,-0.743280,-0.649816,-0.729450,-0.753129
-0.807051,-0.798236,-0.764033,-0.785616,-0.710208,-0.776721,-0.774671,-0.759007,-1.000000,-0.732170,-0.640800,-0.679519,-0.688117,-0.609959,-0.732809,-0.759492,-0.779469,-0.759631,-0.743079,-0.754552,-0.681392,-0.773817,-0.733946,-0.723268,-0.717257,-0.600948,-0.569535,-0.621598,-0.683855,-0.641947,-0.742017,-0.765672
-0.806688,-0.796314,-0.752966,-0.777002,-0.703682,-0.768605,-0.773523,-0.751567,-1.000000,-0.735328,-0.637957,-0.682041,-0.705794,-0.637180,-0.734028,-0.757499,-0.777491,-0.767658,-0.734487,-0.748619,-0.671155,-0.764962,-0.732053,-0.723190,-0.726962,-0.596186,-0.577730,-0.631748,-0.708664,-0.655692,-0.738172,-0.758974
-0.793818,-0.783429,-0.746714,-0.762419,-0.679139,-0.750495,-0.743668,-0.707965,-1.000000,-0.713883,-0.627710,-0.652112,-0.697037,-0.637495,-0.736535,-0.758637,-0.774893,-0.761009,-0.732762,-0.735997,-0.664591,-0.759446,-0.718403,-0.685262,-0.686485,-0.587654,-0.565792,-0.606472,-0.685870,-0.659407,-0.738924,-0.756444
-0.807674,-0.798327,-0.752453,-0.780534,-0.719414,-0.776842,-0.778950,-0.762833,-1.000000,-0.765643,-0.666089,-0.708214,-0.706791,-0.621901,-0.739076,-0.765894,-0.783149,-0.768739,-0.712202,-0.753028,-0.695934,-0.778532,-0.743882,-0.738111,-0.734928,-0.624296,-0.600626,-0.644084,-0.734725,-0.665223,-0.747620,-0.770492
-0.806186,-0.798035,-0.761694,-0.779316,-0.721905,-0.780973,-0.783664,-0.766737,-1.000000,-0.773294,-0.669817,-0.714214,-0.738416,-0.638994,-0.740195,-0.764247,-0.782110,-0.770364,-0.747275,-0.761895,-0.700928,-0.777741,-0.742015,-0.739274,-0.738642,-0.621232,-0.589383,-0.641167,-0.746121,-0.665076,-0.751194,-0.769015
-0.809947,-0.798122,-0.756101,-0.777821,-0.712743,-0.772865,-0.775399,-0.761407,-1.000000,-0.765363,-0.654381,-0.702121,-0.732353,-0.634921,-0.736515,-0.762340,-0.783188,-0.772941,-0.744939,-0.756369,-0.692545,-0.767532,-0.744922,-0.737593,-0.736752,-0.608509,-0.584426,-0.641169,-0.738012,-0.668077,-0.745944,-0.764045
-0.802415,-0.787223,-0.743772,-0.774934,-0.702404,-0.777353,-0.774772,-0.754109,-1.000000,-0.762526,-0.647155,-0.701983,-0.729950,-0.641977,-0.738703,-0.761844,-0.772765,-0.755219,-0.740939,-0.758068,-0.697239,-0.780757,-0.743545,-0.738400,-0.732883,-0.602130,-0.571164,-0.633922,-0.729967,-0.666053,-0.746220,-0.764606
-0.797134,-0.777898,-0.742503,-0.760733,-0.723965,-0.772023,-0.767344,-0.749533,-1.000000,-0.753084,-0.630934,-0.682916,-0.709461,-0.623159,-0.721061,-0.747000,-0.769513,-0.755004,-0.733393,-0.749194,-0.693670,-0.769719,-0.731905,-0.725544,-0.731405,-0.631946,-0.567191,-0.617972,-0.723363,-0.652818,-0.721668,-0.745239
-0.793087,-0.779894,-0.740533,-0.761033,-0.725622,-0.773806,-0.769882,-0.758322,-1.000000,-0.752538,-0.636841,-0.665576,-0.669689,-0.619637,-0.731579,-0.756668,-0.770459,-0.760375,-0.719790,-0.718097,-0.701283,-0.768519,-0.732509,-0.734870,-0.738566,-0.627516,-0.582353,-0.625978,-0.705860,-0.639299,-0.726326,-0.750560
-0.781266,-0.772589,-0.749330,-0.771410,-0.732701,-0.768032,-0.761503,-0.759891,-1.000000,-0.734034,-0.649305,-0.667363,-0.691275,-0.660302,-0.727167,-0.746600,-0.763161,-0.754030,-0.742319,-0.761752,-0.707157,-0.770873,-0.718758,-0.728953,-0.721036,-0.621003,-0.591482,-0.639610,-0.675491,-0.642093,-0.717107,-0.741957
-0.803190,-0.789891,-0.763053,-0.774967,-0.733849,-0.775363,-0.774620,-0.766892,-1.000000,-0.756417,-0.661658,-0.689712,-0.728388,-0.688820,-0.760744,-0.777245,-0.778970,-0.754895,-0.740226,-0.734703,-0.723502,-0.785058,-0.739972,-0.745273,-0.746178,-0.649435,-0.607804,-0.645831,-0.682486,-0.669606,-0.762102,-0.776232
-0.801066,-0.796180,-0.766216,-0.783794,-0.739981,-0.788998,-0.791260,-0.760318,-1.000000,-0.732718,-0.655463,-0.705181,-0.722974,-0.671523,-0.753458,-0.770337,-0.768360,-0.746444,-0.710713,-0.757478,-0.713467,-0.796935,-0.760364,-0.755254,-0.746497,-0.634935,-0.583206,-0.629398,-0.704559,-0.674607,-0.763159,-0.777096
-0.815501,-0.807877,-0.770621,-0.788919,-0.749192,-0.782591,-0.792252,-0.772066,-1.000000,-0.764492,-0.658337,-0.694166,-0.717669,-0.676262,-0.759911,-0.779436,-0.784478,-0.772853,-0.755028,-0.772552,-0.736988,-0.797099,-0.756904,-0.761652,-0.770857,-0.645364,-0.595644,-0.640030,-0.714949,-0.682265,-0.762568,-0.780815
-0.789902,-0.793280,-0.774630,-0.780418,-0.731011,-0.779464,-0.787038,-0.757674,-1.000000,-0.745417,-0.658003,-0.703819,-0.722603,-0.680602,-0.753704,-0.770025,-0.768440,-0.758974,-0.757800,-0.760670,-0.693673,-0.790931,-0.750359,-0.760375,-0.729817,-0.655564,-0.605442,-0.636696,-0.701178,-0.668147,-0.754120,-0.767712
-0.812619,-0.805294,-0.775798,-0.803147,-0.755870,-0.798900,-0.794242,-0.777250,-1.000000,-0.765651,-0.652271,-0.691857,-0.728134,-0.689091,-0.762923,-0.778827,-0.782089,-0.768676,-0.760200,-0.778409,-0.740668,-0.798658,-0.748374,-0.758721,-0.760494,-0.650916,-0.601209,-0.638248,-0.728284,-0.696385,-0.764850,-0.778936
-0.800055,-0.794101,-0.773966,-0.801664,-0.753559,-0.788286,-0.778633,-0.771765,-1.000000,-0.771250,-0.650541,-0.706805,-0.738189,-0.683970,-0.761654,-0.777269,-0.778267,-0.762267,-0.751112,-0.767272,-0.730296,-0.790471,-0.737534,-0.748874,-0.754219,-0.626629,-0.580785,-0.636861,-0.725565,-0.676482,-0.763072,-0.776282
-0.808702,-0.805333,-0.771519,-0.781791,-0.752224,-0.793329,-0.780841,-0.777093,-1.000000,-0.776796,-0.655883,-0.700887,-0.734830,-0.676803,-0.755608,-0.773049,-0.779617,-0.769168,-0.761983,-0.776469,-0.747440,-0.796181,-0.727313,-0.749768,-0.761558,-0.649979,-0.579929,-0.610927,-0.720580,-0.678933,-0.759122,-0.774855
-0.804425,-0.794948,-0.764763,-0.791864,-0.750366,-0.782084,-0.777569,-0.770858,-1.000000,-0.765783,-0.666778,-0.709944,-0.731498,-0.674332,-0.755504,-0.771743,-0.772095,-0.755175,-0.748104,-0.774547,-0.738462,-0.789678,-0.745958,-0.759102,-0.757721,-0.649801,-0.612159,-0.648668,-0.744612,-0.698227,-0.760784,-0.773799
-0.792511,-0.785138,-0.755747,-0.772987,-0.748587,-0.774851,-0.773667,-0.765046,-1.000000,-0.756089,-0.651548,-0.682643,-0.713858,-0.654777,-0.745900,-0.762169,-0.764316,-0.748730,-0.749528,-0.758915,-0.735604,-0.777035,-0.739726,-0.755846,-0.750588,-0.639335,-0.605590,-0.620115,-0.735442,-0.698377,-0.752370,-0.762379
-0.813634,-0.807604,-0.778335,-0.798577,-0.757177,-0.789848,-0.778596,-0.770429,-1.000000,-0.764018,-0.626121,-0.696641,-0.725167,-0.663235,-0.758519,-0.779604,-0.786904,-0.773598,-0.769201,-0.778423,-0.746721,-0.802764,-0.747007,-0.762355,-0.755458,-0.606256,-0.557263,-0.633735,-0.735274,-0.696186,-0.760960,-0.779499
-0.808532,-0.804866,-0.772077,-0.792588,-0.765534,-0.787050,-0.771732,-0.763438,-1.000000,-0.756479,-0.647853,-0.686437,-0.725288,-0.670604,-0.762437,-0.781297,-0.779140,-0.761719,-0.762179,-0.771415,-0.746999,-0.799613,-0.731901,-0.743747,-0.741341,-0.631659,-0.597366,-0.636644,-0.715631,-0.706951,-0.764258,-0.780933
-0.809013,-0.806338,-0.775005,-0.786132,-0.762697,-0.789708,-0.776351,-0.761129,-1.000000,-0.754976,-0.652265,-0.683543,-0.715267,-0.691394,-0.766975,-0.783935,-0.787241,-0.773417,-0.762888,-0.752557,-0.759926,-0.799027,-0.741242,-0.736207,-0.738965,-0.634814,-0.606202,-0.640494,-0.710612,-0.705607,-0.763864,-0.780276
-0.800495,-0.803390,-0.779484,-0.793989,-0.762963,-0.787925,-0.771083,-0.757828,-1.000000,-0.743429,-0.638604,-0.656723,-0.696668,-0.691088,-0.756788,-0.770491,-0.775077,-0.761694,-0.763849,-0.772390,-0.766532,-0.799672,-0.749069,-0.749368,-0.743245,-0.647191,-0.606918,-0.641067,-0.711222,-0.697394,-0.749524,-0.763292
-0.804964,-0.808179,-0.778028,-0.782994,-0.767819,-0.786697,-0.766116,-0.749685,-1.000000,-0.758752,-0.647076,-0.676845,-0.716856,-0.695150,-0.769159,-0.783983,-0.784112,-0.778168,-0.761338,-0.764301,-0.767008,-0.799282,-0.752204,-0.752136,-0.733644,-0.640721,-0.607010,-0.649621,-0.720832,-0.703460,-0.764566,-0.778074
-0.795466,-0.798916,-0.774302,-0.790505,-0.759543,-0.795642,-0.773372,-0.758681,-1.000000,-0.716067,-0.616235,-0.621097,-0.678308,-0.694335,-0.757730,-0.769004,-0.774938,-0.765924,-0.768796,-0.781817,-0.739619,-0.802616,-0.753693,-0.752966,-0.749940,-0.637125,-0.579646,-0.594001,-0.661050,-0.701913,-0.747189,-0.759161
-0.813248,-0.801177,-0.756132,-0.779818,-0.753481,-0.778879,-0.776880,-0.764133,-1.000000,-0.760980,-0.645491,-0.692494,-0.720625,-0.680809,-0.761471,-0.778975,-0.788841,-0.781574,-0.768816,-0.776127,-0.747725,-0.798243,-0.742912,-0.752950,-0.753099,-0.628689,-0.588622,-0.636167,-0.719567,-0.694823,-0.763178,-0.784877
-0.807243,-0.799819,-0.772791,-0.781153,-0.743241,-0.776727,-0.767172,-0.758854,-1.000000,-0.753137,-0.615406,-0.680292,-0.714362,-0.671416,-0.754385,-0.773169,-0.783406,-0.776712,-0.771474,-0.766220,-0.731404,-0.791693,-0.732089,-0.738599,-0.741619,-0.591809,-0.553435,-0.616241,-0.719169,-0.690324,-0.758659,-0.778101
-0.814155,-0.804904,-0.778953,-0.794356,-0.749228,-0.786436,-0.782731,-0.766442,-1.000000,-0.747959,-0.621909,-0.679719,-0.654007,-0.600023,-0.744990,-0.778386,-0.790654,-0.781325,-0.785297,-0.781648,-0.731222,-0.798199,-0.747160,-0.752330,-0.753563,-0.639282,-0.578883,-0.598101,-0.689239,-0.610568,-0.740776,-0.777197
-0.799849,-0.788998,-0.763466,-0.783844,-0.749336,-0.777749,-0.767620,-0.751932,-1.000000,-0.724664,-0.620011,-0.685446,-0.666663,-0.630929,-0.744334,-0.767978,-0.781689,-0.771785,-0.764685,-0.775305,-0.728897,-0.789402,-0.737983,-0.736920,-0.717453,-0.594441,-0.540692,-0.598760,-0.649621,-0.614198,-0.738736,-0.769078
-0.814707,-0.806423,-0.780321,-0.802344,-0.776659,-0.790552,-0.783209,-0.766633,-1.000000,-0.776489,-0.675848,-0.709877,-0.717718,-0.661081,-0.764199,-0.787232,-0.794078,-0.785260,-0.790107,-0.783278,-0.736447,-0.795779,-0.747449,-0.751821,-0.754294,-0.663545,-0.637409,-0.663016,-0.723281,-0.687166,-0.766600,-0.789730
-0.795514,-0.788176,-0.754875,-0.774234,-0.749644,-0.776605,-0.775353,-0.763855,-1.000000,-0.772045,-0.656609,-0.683233,-0.718716,-0.691184,-0.763872,-0.778980,-0.772379,-0.760791,-0.760183,-0.763119,-0.727945,-0.783619,-0.742736,-0.762124,-0.751345,-0.669433,-0.637351,-0.660129,-0.743597,-0.702602,-0.767052,-0.778807
-0.814914,-0.808227,-0.778352,-0.792963,-0.767808,-0.790714,-0.787300,-0.773236,-1.000000,-0.767423,-0.658760,-0.686036,-0.721000,-0.695983,-0.781497,-0.796420,-0.798561,-0.786526,-0.787124,-0.781438,-0.748531,-0.800811,-0.750029,-0.769271,-0.752707,-0.658657,-0.622251,-0.638758,-0.730750,-0.701951,-0.778499,-0.793538
-0.821775,-0.812475,-0.786271,-0.802209,-0.774756,-0.790223,-0.783808,-0.775969,-1.000000,-0.764385,-0.667375,-0.700730,-0.733454,-0.695642,-0.785991,-0.802431,-0.804379,-0.793023,-0.790315,-0.786603,-0.750154,-0.804401,-0.752058,-0.770280,-0.759869,-0.658530,-0.631897,-0.667875,-0.736614,-0.698136,-0.780974,-0.797592
-0.822927,-0.814236,-0.786273,-0.794580,-0.752419,-0.793325,-0.783945,-0.778487,-1.000000,-0.784101,-0.685033,-0.716836,-0.730086,-0.700156,-0.790013,-0.805517,-0.799235,-0.780106,-0.780913,-0.780427,-0.739922,-0.805064,-0.754537,-0.771493,-0.765966,-0.683903,-0.651851,-0.678357,-0.725235,-0.710997,-0.787950,-0.805930
-0.809952,-0.802239,-0.765245,-0.783082,-0.756818,-0.778625,-0.774780,-0.771785,-1.000000,-0.778539,-0.677666,-0.710908,-0.730633,-0.690627,-0.765096,-0.777147,-0.777687,-0.771365,-0.769368,-0.774916,-0.737462,-0.790524,-0.738818,-0.757169,-0.754501,-0.673654,-0.637849,-0.656462,-0.735438,-0.702754,-0.761417,-0.775427
-0.808389,-0.804936,-0.780508,-0.795698,-0.766217,-0.788251,-0.783421,-0.777241,-1.000000,-0.772776,-0.670237,-0.703547,-0.708401,-0.668654,-0.753737,-0.774271,-0.784530,-0.778503,-0.785422,-0.781522,-0.732122,-0.787921,-0.733980,-0.752732,-0.748890,-0.673587,-0.621030,-0.639518,-0.729605,-0.697938,-0.749615,-0.769514
-0.809137,-0.799281,-0.772386,-0.781591,-0.756418,-0.781417,-0.774971,-0.769343,-1.000000,-0.783353,-0.690074,-0.724576,-0.745226,-0.676658,-0.754951,-0.775152,-0.776654,-0.767232,-0.777842,-0.769295,-0.707549,-0.784563,-0.733856,-0.745418,-0.723653,-0.683325,-0.647836,-0.665301,-0.747486,-0.668409,-0.749912,-0.774928
-0.817477,-0.811830,-0.780727,-0.790885,-0.755440,-0.789032,-0.782052,-0.778471,-1.000000,-0.791722,-0.690336,-0.720595,-0.742146,-0.684236,-0.768340,-0.786822,-0.793825,-0.787199,-0.789183,-0.778167,-0.720218,-0.794468,-0.733963,-0.760045,-0.757907,-0.682414,-0.643058,-0.659374,-0.747424,-0.693931,-0.764735,-0.784601
-0.814038,-0.810743,-0.779914,-0.788618,-0.746188,-0.787906,-0.787194,-0.781509,-1.000000,-0.776510,-0.680652,-0.707000,-0.734389,-0.687700,-0.768857,-0.786458,-0.792470,-0.780821,-0.777785,-0.750115,-0.724036,-0.787715,-0.755612,-0.764774,-0.759161,-0.689024,-0.643126,-0.653405,-0.734249,-0.702249,-0.766650,-0.785120
-0.801319,-0.798304,-0.762757,-0.782315,-0.744120,-0.787353,-0.781050,-0.778922,-1.000000,-0.775443,-0.690830,-0.733021,-0.738906,-0.677547,-0.754439,-0.771060,-0.771346,-0.769495,-0.779632,-0.780320,-0.711853,-0.788226,-0.747997,-0.762192,-0.761265,-0.679554,-0.632966,-0.663160,-0.741093,-0.700615,-0.753702,-0.771116
-0.810424,-0.801663,-0.764472,-0.787237,-0.750590,-0.783565,-0.773247,-0.778594,-1.000000,-0.794393,-0.700482,-0.724254,-0.741053,-0.680853,-0.750357,-0.772332,-0.784029,-0.776389,-0.774615,-0.773626,-0.716238,-0.789747,-0.720531,-0.744810,-0.758316,-0.685609,-0.638776,-0.659448,-0.743346,-0.698668,-0.751339,-0.771872
-0.790059,-0.782254,-0.751490,-0.772124,-0.749057,-0.778814,-0.782596,-0.773152,-1.000000,-0.777315,-0.696172,-0.693275,-0.714303,-0.674258,-0.746515,-0.764039,-0.768482,-0.756140,-0.753228,-0.748819,-0.685997,-0.780437,-0.739063,-0.740901,-0.712247,-0.697202,-0.654207,-0.657622,-0.670543,-0.642676,-0.736342,-0.755493
-0.792803,-0.780713,-0.752544,-0.754815,-0.726082,-0.749174,-0.750656,-0.738244,-1.000000,-0.780034,-0.697400,-0.719730,-0.731800,-0.675993,-0.751142,-0.769517,-0.769335,-0.755131,-0.756812,-0.752118,-0.677619,-0.754465,-0.730917,-0.735019,-0.748575,-0.685526,-0.649198,-0.667354,-0.727523,-0.678445,-0.746833,-0.768016
-0.805166,-0.795924,-0.763662,-0.776360,-0.729566,-0.770039,-0.772542,-0.767158,-1.000000,-0.767618,-0.707544,-0.718860,-0.719161,-0.664637,-0.751218,-0.772474,-0.781168,-0.766713,-0.768240,-0.767544,-0.696496,-0.775412,-0.739101,-0.746294,-0.751239,-0.687578,-0.653624,-0.666033,-0.706075,-0.652671,-0.744409,-0.768033
-0.807612,-0.800080,-0.756358,-0.767695,-0.708133,-0.762239,-0.780215,-0.774773,-1.000000,-0.788994,-0.698644,-0.730864,-0.748281,-0.690524,-0.753119,-0.769892,-0.779730,-0.771258,-0.770340,-0.767096,-0.694302,-0.774304,-0.739719,-0.751730,-0.759125,-0.687722,-0.635893,-0.655886,-0.732481,-0.679939,-0.748650,-0.770278
-0.789178,-0.786854,-0.759257,-0.764459,-0.724557,-0.764560,-0.778492,-0.774505,-1.000000,-0.780538,-0.692772,-0.734022,-0.725056,-0.664269,-0.740487,-0.760185,-0.767800,-0.754494,-0.763863,-0.752179,-0.696200,-0.772868,-0.737508,-0.758099,-0.764196,-0.681751,-0.647647,-0.672063,-0.730296,-0.666002,-0.732208,-0.752926
-0.791030,-0.784466,-0.763559,-0.775155,-0.721278,-0.765560,-0.775663,-0.770409,-1.000000,-0.772068,-0.680920,-0.708194,-0.708418,-0.638785,-0.727989,-0.750252,-0.762054,-0.742064,-0.756578,-0.754232,-0.691172,-0.761584,-0.737853,-0.747240,-0.753092,-0.689084,-0.636535,-0.661138,-0.726273,-0.653847,-0.718374,-0.744387
-0.777734,-0.774811,-0.740466,-0.767084,-0.709959,-0.759216,-0.768407,-0.778196,-1.000000,-0.754535,-0.625662,-0.659351,-0.648558,-0.609534,-0.685436,-0.717510,-0.750606,-0.742753,-0.741257,-0.761980,-0.689535,-0.759765,-0.709672,-0.733456,-0.739747,-0.633671,-0.557435,-0.620679,-0.704680,-0.596100,-0.675594,-0.714893
-0.794003,-0.785122,-0.744730,-0.766244,-0.718601,-0.760284,-0.763123,-0.761120,-1.000000,-0.763172,-0.688322,-0.722185,-0.729993,-0.664665,-0.734268,-0.755425,-0.763635,-0.747550,-0.745579,-0.757886,-0.682573,-0.752508,-0.715337,-0.736062,-0.755792,-0.687130,-0.643847,-0.667547,-0.723006,-0.655981,-0.727553,-0.751818
-0.787457,-0.784753,-0.743166,-0.772510,-0.725098,-0.759682,-0.763559,-0.764284,-1.000000,-0.767522,-0.664547,-0.693268,-0.723561,-0.654332,-0.724407,-0.743536,-0.758646,-0.750206,-0.746902,-0.758017,-0.685475,-0.752399,-0.713063,-0.736101,-0.755490,-0.656118,-0.618164,-0.651167,-0.720609,-0.652868,-0.717408,-0.737761
-0.799630,-0.793526,-0.751728,-0.776520,-0.711171,-0.764750,-0.773710,-0.768485,-1.000000,-0.764694,-0.670106,-0.694697,-0.717112,-0.661246,-0.724691,-0.747876,-0.772273,-0.761656,-0.743689,-0.748476,-0.673561,-0.761719,-0.725388,-0.745297,-0.759229,-0.671803,-0.620943,-0.648911,-0.713046,-0.645705,-0.710326,-0.741267
-0.798419,-0.788488,-0.736613,-0.760572,-0.715300,-0.755481,-0.774338,-0.765710,-1.000000,-0.774348,-0.602522,-0.686469,-0.709620,-0.624768,-0.710951,-0.736041,-0.760945,-0.744864,-0.724557,-0.703833,-0.671605,-0.754802,-0.722672,-0.744158,-0.754710,-0.588811,-0.569735,-0.648078,-0.711676,-0.648546,-0.710129,-0.737943
-0.799323,-0.792115,-0.748702,-0.774175,-0.717572,-0.763864,-0.772671,-0.768754,-1.000000,-0.755509,-0.639458,-0.671704,-0.682405,-0.625599,-0.716165,-0.742025,-0.768200,-0.758042,-0.741267,-0.744135,-0.669651,-0.761774,-0.723816,-0.742657,-0.753451,-0.649323,-0.597830,-0.626139,-0.682255,-0.639866,-0.711827,-0.739525
-0.778355,-0.756604,-0.695662,-0.725774,-0.682920,-0.721877,-0.754779,-0.754964,-1.000000,-0.767429,-0.633403,-0.702880,-0.717754,-0.618955,-0.684639,-0.705296,-0.727557,-0.726925,-0.717649,-0.710889,-0.628143,-0.736777,-0.683667,-0.703982,-0.744051,-0.607720,-0.578238,-0.646220,-0.731656,-0.645456,-0.688462,-0.715152
-0.798749,-0.795890,-0.750826,-0.760204,-0.728607,-0.771363,-0.773891,-0.764018,-1.000000,-0.778410,-0.658356,-0.704049,-0.710574,-0.638923,-0.716396,-0.740600,-0.758243,-0.748705,-0.746284,-0.740496,-0.690518,-0.761067,-0.727966,-0.741855,-0.751937,-0.641453,-0.621299,-0.661880,-0.713724,-0.637444,-0.707781,-0.737628
-0.783683,-0.777931,-0.740203,-0.761368,-0.717022,-0.753848,-0.741922,-0.711642,-1.000000,-0.738494,-0.652131,-0.697204,-0.668325,-0.589168,-0.718630,-0.743072,-0.754806,-0.742566,-0.737767,-0.731838,-0.682275,-0.753014,-0.703421,-0.697816,-0.744298,-0.661817,-0.622058,-0.648222,-0.716662,-0.578005,-0.711413,-0.737568
-0.774016,-0.771730,-0.735875,-0.753220,-0.715047,-0.751029,-0.744685,-0.747539,-1.000000,-0.754334,-0.651667,-0.700024,-0.716813,-0.646974,-0.714640,-0.735685,-0.748110,-0.733235,-0.735394,-0.724217,-0.690613,-0.750597,-0.695969,-0.720284,-0.729387,-0.645029,-0.615896,-0.651638,-0.707668,-0.620856,-0.700490,-0.727260
-0.783455,-0.779433,-0.730733,-0.751582,-0.707705,-0.757838,-0.763233,-0.741692,-1.000000,-0.766955,-0.652373,-0.705988,-0.712361,-0.640391,-0.714774,-0.736347,-0.748238,-0.729730,-0.724309,-0.734814,-0.692634,-0.752181,-0.710392,-0.715815,-0.727542,-0.630296,-0.609583,-0.650483,-0.726754,-0.635513,-0.706169,-0.732179
-0.791128,-0.786967,-0.741072,-0.763195,-0.716796,-0.751278,-0.753659,-0.755888,-1.000000,-0.762282,-0.648440,-0.704113,-0.716952,-0.650020,-0.720034,-0.739951,-0.757412,-0.743485,-0.739410,-0.734397,-0.685762,-0.749926,-0.691345,-0.724291,-0.748393,-0.623326,-0.578450,-0.614049,-0.723375,-0.640972,-0.717150,-0.743771
-0.800701,-0.796863,-0.754351,-0.769952,-0.727124,-0.766752,-0.771592,-0.765714,-1.000000,-0.763906,-0.654573,-0.693620,-0.710055,-0.644976,-0.720510,-0.745409,-0.769396,-0.757383,-0.743868,-0.738531,-0.686722,-0.762784,-0.718820,-0.736162,-0.757467,-0.653444,-0.609674,-0.648499,-0.710554,-0.636272,-0.713149,-0.742882
-0.791846,-0.790931,-0.742253,-0.760889,-0.716841,-0.756412,-0.758146,-0.754325,-1.000000,-0.731809,-0.633699,-0.677464,-0.687414,-0.634400,-0.715088,-0.738788,-0.763747,-0.750906,-0.735204,-0.729715,-0.686012,-0.753156,-0.708240,-0.717296,-0.737594,-0.642129,-0.587649,-0.611314,-0.682619,-0.635939,-0.709578,-0.738043
-0.797159,-0.793760,-0.746262,-0.768379,-0.721043,-0.761044,-0.737713,-0.733871,-1.000000,-0.741028,-0.647944,-0.687113,-0.685463,-0.631202,-0.704537,-0.734028,-0.764329,-0.754342,-0.730197,-0.737274,-0.686435,-0.756480,-0.698103,-0.708435,-0.741593,-0.644110,-0.598493,-0.620193,-0.643105,-0.608195,-0.688222,-0.725751
-0.768665,-0.763999,-0.702330,-0.730409,-0.684253,-0.732858,-0.750839,-0.747364,-1.000000,-0.756273,-0.647255,-0.687297,-0.697578,-0.625991,-0.684824,-0.706387,-0.723729,-0.714860,-0.699079,-0.704701,-0.656069,-0.729303,-0.695347,-0.718222,-0.744022,-0.646456,-0.605257,-0.644359,-0.716052,-0.637533,-0.691031,-0.713639
-0.801513,-0.798685,-0.747435,-0.760714,-0.724695,-0.762734,-0.757918,-0.754771,-1.000000,-0.742711,-0.638759,-0.669814,-0.690386,-0.648814,-0.733755,-0.757613,-0.781750,-0.767595,-0.744010,-0.732331,-0.697844,-0.758473,-0.708863,-0.719066,-0.726641,-0.653313,-0.610223,-0.644931,-0.691980,-0.634145,-0.726259,-0.756581
-0.809072,-0.804252,-0.759337,-0.775776,-0.730260,-0.764272,-0.763090,-0.766526,-1.000000,-0.762250,-0.651581,-0.688633,-0.704808,-0.645002,-0.729947,-0.755037,-0.777921,-0.766113,-0.746706,-0.747807,-0.707146,-0.763687,-0.699184,-0.721659,-0.746129,-0.653889,-0.612006,-0.628774,-0.716441,-0.644684,-0.725751,-0.755470
-0.807049,-0.802142,-0.759283,-0.778392,-0.739091,-0.771494,-0.773828,-0.750539,-1.000000,-0.752878,-0.632919,-0.666326,-0.682686,-0.628580,-0.729915,-0.756526,-0.780252,-0.766086,-0.740659,-0.738191,-0.715263,-0.767889,-0.710490,-0.731740,-0.751216,-0.630886,-0.586334,-0.628759,-0.700570,-0.635813,-0.724507,-0.755961
-0.812352,-0.804103,-0.762887,-0.774712,-0.736962,-0.766684,-0.770185,-0.755422,-1.000000,-0.761376,-0.637118,-0.685604,-0.712045,-0.649814,-0.736387,-0.760988,-0.784357,-0.770517,-0.746063,-0.749405,-0.719283,-0.770957,-0.716319,-0.729551,-0.752228,-0.625247,-0.581059,-0.632021,-0.710682,-0.639346,-0.730635,-0.763037
-0.811179,-0.802657,-0.757679,-0.780149,-0.742652,-0.773878,-0.773629,-0.760399,-1.000000,-0.777193,-0.661781,-0.699119,-0.725504,-0.645570,-0.732928,-0.758570,-0.780261,-0.766074,-0.745893,-0.747007,-0.721854,-0.772961,-0.718452,-0.732628,-0.757509,-0.656246,-0.610428,-0.644230,-0.724747,-0.639438,-0.729284,-0.759807
-0.802397,-0.794495,-0.762577,-0.771536,-0.727156,-0.771851,-0.768397,-0.757017,-1.000000,-0.773704,-0.657255,-0.682423,-0.719487,-0.649579,-0.735913,-0.758929,-0.772849,-0.752274,-0.751329,-0.733147,-0.704149,-0.771326,-0.723958,-0.735506,-0.755762,-0.656795,-0.612255,-0.642225,-0.711224,-0.648119,-0.731012,-0.759083
-0.819961,-0.815401,-0.773198,-0.791704,-0.751208,-0.780563,-0.778054,-0.763823,-1.000000,-0.782960,-0.667296,-0.695015,-0.729067,-0.658959,-0.744295,-0.768327,-0.786281,-0.768357,-0.763603,-0.757826,-0.721656,-0.775831,-0.728758,-0.741740,-0.760680,-0.664022,-0.629911,-0.653695,-0.720246,-0.663190,-0.742141,-0.771834
-0.816778,-0.809115,-0.761706,-0.787361,-0.745753,-0.772295,-0.771154,-0.757748,-1.000000,-0.779611,-0.661312,-0.694700,-0.722601,-0.652520,-0.735355,-0.760752,-0.785694,-0.768827,-0.760557,-0.752669,-0.712618,-0.759752,-0.701627,-0.734791,-0.761213,-0.664735,-0.626256,-0.649912,-0.730785,-0.654400,-0.732185,-0.765946
-0.793472,-0.778424,-0.705101,-0.748807,-0.723677,-0.767768,-0.759526,-0.732170,-1.000000,-0.742731,-0.613983,-0.657518,-0.683787,-0.593327,-0.682230,-0.711467,-0.764836,-0.768131,-0.735516,-0.705127,-0.707141,-0.760289,-0.706818,-0.705633,-0.736499,-0.645572,-0.598488,-0.619795,-0.704337,-0.609146,-0.687890,-0.721459
-0.807645,-0.798767,-0.753961,-0.774467,-0.752092,-0.774434,-0.775174,-0.767915,-1.000000,-0.755448,-0.616626,-0.648850,-0.695899,-0.644196,-0.730138,-0.752846,-0.780571,-0.770561,-0.752450,-0.728114,-0.720852,-0.766589,-0.718570,-0.735098,-0.754872,-0.642495,-0.593391,-0.616324,-0.711394,-0.658716,-0.731125,-0.756724
-0.785860,-0.785200,-0.734099,-0.744955,-0.730102,-0.754595,-0.740404,-0.754075,-1.000000,-0.726402,-0.585405,-0.615264,-0.651457,-0.603577,-0.707821,-0.736472,-0.776362,-0.770993,-0.731894,-0.694819,-0.704997,-0.741918,-0.667967,-0.703995,-0.746664,-0.612664,-0.559236,-0.580065,-0.685313,-0.649430,-0.710654,-0.735475
-0.805504,-0.800795,-0.753068,-0.765272,-0.731368,-0.757449,-0.746389,-0.744904,-1.000000,-0.740931,-0.623829,-0.637928,-0.667967,-0.621429,-0.726783,-0.751849,-0.784666,-0.770409,-0.748941,-0.723579,-0.702890,-0.741078,-0.691044,-0.709362,-0.741014,-0.648954,-0.601671,-0.602985,-0.719613,-0.656060,-0.729423,-0.754341
-0.815111,-0.803492,-0.755663,-0.776396,-0.740679,-0.773075,-0.762588,-0.756510,-1.000000,-0.778041,-0.649341,-0.695574,-0.737420,-0.669029,-0.740699,-0.758498,-0.787032,-0.781489,-0.757206,-0.739775,-0.716942,-0.769606,-0.711759,-0.723632,-0.746651,-0.628578,-0.605066,-0.638874,-0.741657,-0.675929,-0.740692,-0.763090
-0.806195,-0.788388,-0.743604,-0.765954,-0.739354,-0.774475,-0.770531,-0.755402,-1.000000,-0.781999,-0.661135,-0.697947,-0.748827,-0.668241,-0.748639,-0.767060,-0.784386,-0.778507,-0.753635,-0.724240,-0.717532,-0.771332,-0.718893,-0.723866,-0.759225,-0.658253,-0.627110,-0.654307,-0.752704,-0.674464,-0.748702,-0.767721
-0.827187,-0.813004,-0.768189,-0.786984,-0.753004,-0.785071,-0.783444,-0.774725,-1.000000,-0.798681,-0.670645,-0.714732,-0.747314,-0.672210,-0.759141,-0.781211,-0.803803,-0.794203,-0.769562,-0.745167,-0.732363,-0.782616,-0.726335,-0.749392,-0.772541,-0.659845,-0.638898,-0.664960,-0.766170,-0.692017,-0.762840,-0.786139
-0.831407,-0.815951,-0.766413,-0.776589,-0.746238,-0.784705,-0.791916,-0.779632,-1.000000,-0.805056,-0.679058,-0.708066,-0.745279,-0.671714,-0.760656,-0.782856,-0.807442,-0.798580,-0.762114,-0.751911,-0.728067,-0.786342,-0.740871,-0.752877,-0.776107,-0.681927,-0.644253,-0.664362,-0.769071,-0.694937,-0.763907,-0.789247
-0.829386,-0.810775,-0.756379,-0.783161,-0.748951,-0.782660,-0.782650,-0.783057,-1.000000,-0.806858,-0.687584,-0.745882,-0.775664,-0.666756,-0.755605,-0.778542,-0.793502,-0.778974,-0.757200,-0.752611,-0.729062,-0.773921,-0.712851,-0.733867,-0.769851,-0.650828,-0.641331,-0.669751,-0.766332,-0.693838,-0.767503,-0.789780
-0.833777,-0.820786,-0.777593,-0.783734,-0.758820,-0.794213,-0.791025,-0.778012,-1.000000,-0.796015,-0.713739,-0.714519,-0.752252,-0.690478,-0.773834,-0.794030,-0.809300,-0.792867,-0.769783,-0.757231,-0.731710,-0.791598,-0.738842,-0.746181,-0.754838,-0.710589,-0.664989,-0.670037,-0.748060,-0.696873,-0.779102,-0.799013
-0.820688,-0.787648,-0.725806,-0.730641,-0.732197,-0.772659,-0.763660,-0.770796,-1.000000,-0.794247,-0.693990,-0.710694,-0.742331,-0.685185,-0.738016,-0.757035,-0.788891,-0.793979,-0.743133,-0.697107,-0.726393,-0.759784,-0.687519,-0.728896,-0.771992,-0.676573,-0.634047,-0.648609,-0.739472,-0.695600,-0.747820,-0.770690
-0.839386,-0.829846,-0.787052,-0.800150,-0.768946,-0.795066,-0.791922,-0.773528,-1.000000,-0.784046,-0.683953,-0.706249,-0.725145,-0.698142,-0.779140,-0.800899,-0.821989,-0.812108,-0.777017,-0.762715,-0.758788,-0.785566,-0.735135,-0.748521,-0.770850,-0.688389,-0.635332,-0.657435,-0.740785,-0.704238,-0.775722,-0.800343
-0.829614,-0.809588,-0.776940,-0.788073,-0.757394,-0.768612,-0.752330,-0.724443,-1.000000,-0.763371,-0.668333,-0.712078,-0.753602,-0.701798,-0.783929,-0.803478,-0.813230,-0.800205,-0.771047,-0.753131,-0.762603,-0.786299,-0.715060,-0.711716,-0.765938,-0.686638,-0.625911,-0.643572,-0.753578,-0.717206,-0.784386,-0.802848
-0.829689,-0.815697,-0.777854,-0.783077,-0.768011,-0.798419,-0.795781,-0.786446,-1.000000,-0.780533,-0.676284,-0.718553,-0.739450,-0.703888,-0.779403,-0.799993,-0.820626,-0.809099,-0.768835,-0.734452,-0.753975,-0.799106,-0.746256,-0.755256,-0.769335,-0.684818,-0.633871,-0.654718,-0.715449,-0.710965,-0.773995,-0.794117
-0.847387,-0.835898,-0.794510,-0.806007,-0.779909,-0.803407,-0.804688,-0.794114,-1.000000,-0.802741,-0.689537,-0.719422,-0.751865,-0.702642,-0.788880,-0.809438,-0.831268,-0.821045,-0.791305,-0.775393,-0.761585,-0.799312,-0.755849,-0.764792,-0.782196,-0.694485,-0.637505,-0.661894,-0.779412,-0.730496,-0.791436,-0.812507
-0.847871,-0.834914,-0.796666,-0.806816,-0.771807,-0.800129,-0.797960,-0.788346,-1.000000,-0.801842,-0.692480,-0.713748,-0.763822,-0.701212,-0.785099,-0.807020,-0.828465,-0.816275,-0.792316,-0.781535,-0.762555,-0.798783,-0.755331,-0.765067,-0.783338,-0.708980,-0.656948,-0.656540,-0.774558,-0.708484,-0.781962,-0.808188
-0.803804,-0.794016,-0.753721,-0.789643,-0.772743,-0.787864,-0.790475,-0.791061,-1.000000,-0.786306,-0.632395,-0.677806,-0.704278,-0.670760,-0.754980,-0.774545,-0.777191,-0.770448,-0.767552,-0.763063,-0.758985,-0.792963,-0.731667,-0.757755,-0.782156,-0.623373,-0.607297,-0.669092,-0.766208,-0.722429,-0.763693,-0.776142
-0.808549,-0.811119,-0.762912,-0.783733,-0.743450,-0.773166,-0.778640,-0.779974,-1.000000,-0.789779,-0.639588,-0.704754,-0.751792,-0.695136,-0.750311,-0.763413,-0.771055,-0.763702,-0.762241,-0.742787,-0.716123,-0.767646,-0.711642,-0.737546,-0.766782,-0.578175,-0.604464,-0.664239,-0.782470,-0.726825,-0.757162,-0.767774
-0.834114,-0.821645,-0.769058,-0.781433,-0.753164,-0.791022,-0.797410,-0.776558,-1.000000,-0.791462,-0.678323,-0.711669,-0.742764,-0.701462,-0.780953,-0.796754,-0.806635,-0.793590,-0.768126,-0.752602,-0.731286,-0.783961,-0.734362,-0.752912,-0.766926,-0.663283,-0.639997,-0.668581,-0.744346,-0.725159,-0.783881,-0.800749
-0.828624,-0.820029,-0.778892,-0.795716,-0.762306,-0.786495,-0.792503,-0.770597,-1.000000,-0.763847,-0.674226,-0.704622,-0.734255,-0.685805,-0.768045,-0.787224,-0.807356,-0.798042,-0.788235,-0.760341,-0.751795,-0.788948,-0.732476,-0.752926,-0.755111,-0.654444,-0.634383,-0.661049,-0.753684,-0.715333,-0.773279,-0.790751
-0.824172,-0.813197,-0.772046,-0.798985,-0.768342,-0.780345,-0.783042,-0.773072,-1.000000,-0.778272,-0.663624,-0.682637,-0.740832,-0.699393,-0.765167,-0.783086,-0.796309,-0.788397,-0.784837,-0.765659,-0.757699,-0.789633,-0.729498,-0.747872,-0.765191,-0.657034,-0.638838,-0.679489,-0.769126,-0.723664,-0.769293,-0.790032
-0.828519,-0.818289,-0.777426,-0.793960,-0.761573,-0.786969,-0.792529,-0.778417,-1.000000,-0.795615,-0.666033,-0.708494,-0.757461,-0.702520,-0.772176,-0.790557,-0.804201,-0.792546,-0.787965,-0.766730,-0.753564,-0.791824,-0.741425,-0.757040,-0.779081,-0.648762,-0.632165,-0.683315,-0.773131,-0.728437,-0.776685,-0.797668
-0.831761,-0.820902,-0.773170,-0.791404,-0.765271,-0.785946,-0.786132,-0.777687,-1.000000,-0.780618,-0.655363,-0.673306,-0.742577,-0.708207,-0.781081,-0.797136,-0.809444,-0.796251,-0.782308,-0.768007,-0.752730,-0.791427,-0.745417,-0.762139,-0.778395,-0.661035,-0.642933,-0.682891,-0.767689,-0.727413,-0.786334,-0.802488
-0.835919,-0.825851,-0.783030,-0.801246,-0.769637,-0.796192,-0.804658,-0.797044,-1.000000,-0.780106,-0.657838,-0.697111,-0.742528,-0.707568,-0.777680,-0.796095,-0.810789,-0.799355,-0.795440,-0.773612,-0.758974,-0.795350,-0.750022,-0.766628,-0.776491,-0.643819,-0.621322,-0.672850,-0.749072,-0.711292,-0.780529,-0.800477
-0.817445,-0.812225,-0.776008,-0.792861,-0.765691,-0.790570,-0.790678,-0.782516,-1.000000,-0.780724,-0.640938,-0.655690,-0.737134,-0.687245,-0.768583,-0.786326,-0.802589,-0.793861,-0.793989,-0.770875,-0.754416,-0.790940,-0.742875,-0.748251,-0.772442,-0.654613,-0.630982,-0.664708,-0.774036,-0.704267,-0.771069,-0.788585
-0.829222,-0.822084,-0.773544,-0.796662,-0.765134,-0.790115,-0.794886,-0.787015,-1.000000,-0.776805,-0.629520,-0.667491,-0.735675,-0.679231,-0.765445,-0.787953,-0.806705,-0.796440,-0.792658,-0.774865,-0.752826,-0.793072,-0.738828,-0.753994,-0.778122,-0.635865,-0.610094,-0.649697,-0.771892,-0.713357,-0.773088,-0.795755
-0.825256,-0.813893,-0.768635,-0.787536,-0.753114,-0.782483,-0.789586,-0.781902,-1.000000,-0.763477,-0.607791,-0.651188,-0.711659,-0.674360,-0.764094,-0.784706,-0.801349,-0.792134,-0.784684,-0.772799,-0.760876,-0.787763,-0.732664,-0.747192,-0.764487,-0.621936,-0.574044,-0.584125,-0.750737,-0.703878,-0.770776,-0.792434
-0.827546,-0.815642,-0.758744,-0.786722,-0.761400,-0.778487,-0.788862,-0.785940,-1.000000,-0.764929,-0.616509,-0.654216,-0.716292,-0.661253,-0.753906,-0.778780,-0.801333,-0.791414,-0.773001,-0.767568,-0.760053,-0.780485,-0.716524,-0.739216,-0.760408,-0.612359,-0.592045,-0.640865,-0.760883,-0.678782,-0.761706,-0.789394
-0.809681,-0.783651,-0.728551,-0.764056,-0.731858,-0.779696,-0.790275,-0.781958,-1.000000,-0.770012,-0.602178,-0.624808,-0.713105,-0.670958,-0.748714,-0.767703,-0.787553,-0.782783,-0.747874,-0.725176,-0.740060,-0.776794,-0.739962,-0.748125,-0.769201,-0.618342,-0.579188,-0.625651,-0.739511,-0.688282,-0.760153,-0.782679
-0.818439,-0.813792,-0.764377,-0.773498,-0.716259,-0.771797,-0.767528,-0.783010,-1.000000,-0.750907,-0.603142,-0.624155,-0.687010,-0.660636,-0.765027,-0.785816,-0.797276,-0.783971,-0.770062,-0.753628,-0.743147,-0.775367,-0.720496,-0.743264,-0.752105,-0.605238,-0.571586,-0.620069,-0.714639,-0.679600,-0.763320,-0.788335
-0.829946,-0.822131,-0.786351,-0.796119,-0.764075,-0.794464,-0.787937,-0.780287,-1.000000,-0.775093,-0.634911,-0.648783,-0.683949,-0.657077,-0.770868,-0.794821,-0.803814,-0.793286,-0.794762,-0.787264,-0.779000,-0.799196,-0.741809,-0.749657,-0.767948,-0.603167,-0.563487,-0.641910,-0.723613,-0.664629,-0.767890,-0.796071
-0.827034,-0.814082,-0.768414,-0.780920,-0.746044,-0.791258,-0.792374,-0.786788,-1.000000,-0.769347,-0.635655,-0.649704,-0.692644,-0.665285,-0.775460,-0.797066,-0.798445,-0.770509,-0.783792,-0.782249,-0.751716,-0.791278,-0.742692,-0.750552,-0.761211,-0.625888,-0.594865,-0.657790,-0.762578,-0.690075,-0.777001,-0.802243
-0.810062,-0.810420,-0.778202,-0.772008,-0.742851,-0.765579,-0.772135,-0.783204,-1.000000,-0.772770,-0.618194,-0.654650,-0.695604,-0.665301,-0.754167,-0.773338,-0.784839,-0.775470,-0.782807,-0.758640,-0.739560,-0.775754,-0.717933,-0.736479,-0.755833,-0.588649,-0.582614,-0.646670,-0.737993,-0.672777,-0.757370,-0.775911
-0.810211,-0.804879,-0.773224,-0.779902,-0.748320,-0.752735,-0.750497,-0.769270,-1.000000,-0.760161,-0.591535,-0.633997,-0.658833,-0.638250,-0.747424,-0.772481,-0.791074,-0.777745,-0.781056,-0.766695,-0.742519,-0.751543,-0.675773,-0.710679,-0.750529,-0.576057,-0.559550,-0.626274,-0.694750,-0.650596,-0.745154,-0.773670
-0.823575,-0.809423,-0.745987,-0.773197,-0.738172,-0.771463,-0.779286,-0.784074,-1.000000,-0.769891,-0.623207,-0.665348,-0.711963,-0.655851,-0.750260,-0.775015,-0.791840,-0.779390,-0.750273,-0.765398,-0.721492,-0.774322,-0.715766,-0.735670,-0.758475,-0.607481,-0.586574,-0.649196,-0.749998,-0.662483,-0.753833,-0.785053
-0.825307,-0.811794,-0.769935,-0.782553,-0.744500,-0.772937,-0.778108,-0.782666,-1.000000,-0.764353,-0.609578,-0.660314,-0.682967,-0.619088,-0.744476,-0.774293,-0.796166,-0.779777,-0.771666,-0.773907,-0.745952,-0.778430,-0.716073,-0.733823,-0.755630,-0.598952,-0.537995,-0.619102,-0.734621,-0.656765,-0.744176,-0.779989
-0.808569,-0.793473,-0.756030,-0.771082,-0.738903,-0.761966,-0.762436,-0.775398,-1.000000,-0.761849,-0.603001,-0.652190,-0.691702,-0.643802,-0.746926,-0.768751,-0.780340,-0.760979,-0.762828,-0.764759,-0.736914,-0.762712,-0.690640,-0.715726,-0.741185,-0.592540,-0.552124,-0.624300,-0.732793,-0.656547,-0.749707,-0.776169
-0.814706,-0.796099,-0.765740,-0.768173,-0.746605,-0.772112,-0.775159,-0.785516,-1.000000,-0.760485,-0.593954,-0.645528,-0.684062,-0.643734,-0.752044,-0.775645,-0.787251,-0.769298,-0.760895,-0.761586,-0.743523,-0.776067,-0.711071,-0.727278,-0.760151,-0.586742,-0.556537,-0.629683,-0.724944,-0.662749,-0.752936,-0.780161
-0.820266,-0.804054,-0.764984,-0.776448,-0.754783,-0.774364,-0.777463,-0.785376,-1.000000,-0.759756,-0.593369,-0.641230,-0.697899,-0.651515,-0.757911,-0.779904,-0.791806,-0.772353,-0.756066,-0.769205,-0.746487,-0.776919,-0.712744,-0.735815,-0.759824,-0.589973,-0.547395,-0.609583,-0.731326,-0.667623,-0.756506,-0.784666
-0.821035,-0.806219,-0.766948,-0.780768,-0.755676,-0.774399,-0.777402,-0.784659,-1.000000,-0.763815,-0.607055,-0.644290,-0.688890,-0.649114,-0.758192,-0.780540,-0.792285,-0.771291,-0.769660,-0.765328,-0.740049,-0.772500,-0.712126,-0.736910,-0.760328,-0.599863,-0.569048,-0.624909,-0.708009,-0.666433,-0.759059,-0.787834
-0.818164,-0.802792,-0.762420,-0.780467,-0.756154,-0.775045,-0.774834,-0.782466,-1.000000,-0.765451,-0.595073,-0.640094,-0.684497,-0.630199,-0.742652,-0.769101,-0.786501,-0.769773,-0.766778,-0.765899,-0.744924,-0.778132,-0.714304,-0.736757,-0.757651,-0.599448,-0.560421,-0.614081,-0.706770,-0.663640,-0.750237,-0.778043
-0.781310,-0.771944,-0.741563,-0.753534,-0.736973,-0.754203,-0.754416,-0.764871,-1.000000,-0.750562,-0.598371,-0.625943,-0.660855,-0.609895,-0.734983,-0.760624,-0.770607,-0.758967,-0.749607,-0.730597,-0.735236,-0.758530,-0.698732,-0.731535,-0.752959,-0.589651,-0.562428,-0.620748,-0.705043,-0.642740,-0.744771,-0.765579
-0.789769,-0.783471,-0.754795,-0.765400,-0.740633,-0.768774,-0.751027,-0.772533,-1.000000,-0.754873,-0.587581,-0.627620,-0.649384,-0.562021,-0.709985,-0.741897,-0.768923,-0.761714,-0.767588,-0.750250,-0.740424,-0.754758,-0.678946,-0.720017,-0.758314,-0.585854,-0.544331,-0.602766,-0.709580,-0.605915,-0.713699,-0.741319
-0.781720,-0.775184,-0.751409,-0.768821,-0.735893,-0.764711,-0.762361,-0.774081,-1.000000,-0.743749,-0.588423,-0.650472,-0.658507,-0.608273,-0.714793,-0.740724,-0.759657,-0.732635,-0.756075,-0.748562,-0.735137,-0.772435,-0.699690,-0.721141,-0.747065,-0.569908,-0.543655,-0.612898,-0.661783,-0.579738,-0.706183,-0.734660
-0.788624,-0.779500,-0.744202,-0.770473,-0.754414,-0.774747,-0.766861,-0.785241,-1.000000,-0.751686,-0.580621,-0.635998,-0.670312,-0.599272,-0.718498,-0.745654,-0.757061,-0.742600,-0.742234,-0.742954,-0.756730,-0.775675,-0.697691,-0.727113,-0.755198,-0.584436,-0.537449,-0.612211,-0.735071,-0.642996,-0.728210,-0.753268
-0.822331,-0.810299,-0.776795,-0.782654,-0.743367,-0.780015,-0.775052,-0.774658,-1.000000,-0.771632,-0.610546,-0.652430,-0.693990,-0.632868,-0.746665,-0.772804,-0.795129,-0.781138,-0.777924,-0.763615,-0.747954,-0.774031,-0.714205,-0.730568,-0.751518,-0.608571,-0.570915,-0.627674,-0.732412,-0.651568,-0.748486,-0.777794
-0.833924,-0.817266,-0.781246,-0.788250,-0.758805,-0.793978,-0.788977,-0.783412,-1.000000,-0.782476,-0.620900,-0.666489,-0.683247,-0.621426,-0.752307,-0.781597,-0.806636,-0.790195,-0.779943,-0.767889,-0.758566,-0.790259,-0.728896,-0.745268,-0.775697,-0.625430,-0.576006,-0.636573,-0.712529,-0.647672,-0.749696,-0.783893
-0.832223,-0.811281,-0.770930,-0.794501,-0.750671,-0.795529,-0.786999,-0.798265,-1.000000,-0.779495,-0.636085,-0.673559,-0.702818,-0.636464,-0.754446,-0.782658,-0.802852,-0.783685,-0.781061,-0.784915,-0.758965,-0.787274,-0.715444,-0.750353,-0.775944,-0.633237,-0.590747,-0.636423,-0.738356,-0.662844,-0.756041,-0.787792
-0.818203,-0.798863,-0.763551,-0.780459,-0.734665,-0.779561,-0.780727,-0.792326,-1.000000,-0.758488,-0.613894,-0.627738,-0.688619,-0.616501,-0.728683,-0.760256,-0.790290,-0.776011,-0.763325,-0.773229,-0.744904,-0.768954,-0.710966,-0.744560,-0.775789,-0.628435,-0.581943,-0.637318,-0.747247,-0.656987,-0.742157,-0.775313
-0.817956,-0.801507,-0.774569,-0.786296,-0.747101,-0.790592,-0.787391,-0.794958,-1.000000,-0.777081,-0.608497,-0.637435,-0.692514,-0.620591,-0.736782,-0.766411,-0.790174,-0.771271,-0.766252,-0.773633,-0.751500,-0.784332,-0.724624,-0.747156,-0.764386,-0.615249,-0.566941,-0.636104,-0.739796,-0.651875,-0.740495,-0.772617
-0.820436,-0.806359,-0.775946,-0.788013,-0.754079,-0.788310,-0.778983,-0.787701,-1.000000,-0.775243,-0.621669,-0.645890,-0.686175,-0.610364,-0.729368,-0.764276,-0.792053,-0.773672,-0.770277,-0.776017,-0.756307,-0.783258,-0.713661,-0.738132,-0.766973,-0.613637,-0.573934,-0.634982,-0.747462,-0.654868,-0.734962,-0.769871
-0.814726,-0.799977,-0.774639,-0.785253,-0.737774,-0.783322,-0.778593,-0.789557,-1.000000,-0.778144,-0.633359,-0.650265,-0.686429,-0.608597,-0.724750,-0.760578,-0.784150,-0.766664,-0.767133,-0.775666,-0.711411,-0.770892,-0.709472,-0.741038,-0.775062,-0.616363,-0.590613,-0.651752,-0.754646,-0.649734,-0.734154,-0.769569
-0.820455,-0.806270,-0.772359,-0.782756,-0.722984,-0.782708,-0.769415,-0.782804,-1.000000,-0.742547,-0.607986,-0.609176,-0.675911,-0.612523,-0.737867,-0.770190,-0.794326,-0.777162,-0.754592,-0.768745,-0.707205,-0.775136,-0.709837,-0.727513,-0.733721,-0.608896,-0.599039,-0.660136,-0.712421,-0.636996,-0.740909,-0.772586
-0.818521,-0.802473,-0.766196,-0.773556,-0.716704,-0.774138,-0.759572,-0.777305,-1.000000,-0.802703,-0.652644,-0.682255,-0.708389,-0.624898,-0.731996,-0.760042,-0.780504,-0.768340,-0.736450,-0.754889,-0.729005,-0.762882,-0.694265,-0.736018,-0.775310,-0.627329,-0.597129,-0.653142,-0.760400,-0.658370,-0.735968,-0.764624
-0.804967,-0.787229,-0.754773,-0.765462,-0.719588,-0.769285,-0.766768,-0.784910,-1.000000,-0.787830,-0.641173,-0.670673,-0.699845,-0.612804,-0.719346,-0.748143,-0.766992,-0.754072,-0.748234,-0.764373,-0.715684,-0.761968,-0.697469,-0.740259,-0.753437,-0.626768,-0.585553,-0.613033,-0.746737,-0.653962,-0.729348,-0.756872
-0.808852,-0.794283,-0.759153,-0.779917,-0.737914,-0.781030,-0.770312,-0.789183,-1.000000,-0.797640,-0.649796,-0.682842,-0.704591,-0.619143,-0.722381,-0.752562,-0.772468,-0.754062,-0.748368,-0.765469,-0.723899,-0.776350,-0.711449,-0.745178,-0.776852,-0.626033,-0.602453,-0.667544,-0.750796,-0.643463,-0.730111,-0.758755
-0.810635,-0.799076,-0.763967,-0.786847,-0.740700,-0.784815,-0.773758,-0.790116,-1.000000,-0.799294,-0.636279,-0.668647,-0.692797,-0.607760,-0.725500,-0.755128,-0.773780,-0.756942,-0.757792,-0.774611,-0.723112,-0.776237,-0.696915,-0.750740,-0.768512,-0.631011,-0.590594,-0.655331,-0.752692,-0.659349,-0.733473,-0.760659
-0.821360,-0.809880,-0.777846,-0.787935,-0.728413,-0.781220,-0.760780,-0.784758,-1.000000,-0.795467,-0.651013,-0.683201,-0.703727,-0.620685,-0.728883,-0.760201,-0.787871,-0.774585,-0.765734,-0.770606,-0.710479,-0.778452,-0.691832,-0.734095,-0.772632,-0.630887,-0.602757,-0.661323,-0.752575,-0.646712,-0.728574,-0.761363
-0.820546,-0.811697,-0.781548,-0.791895,-0.750804,-0.790797,-0.778116,-0.792635,-1.000000,-0.794847,-0.627714,-0.679550,-0.699092,-0.620006,-0.730555,-0.760775,-0.788615,-0.774867,-0.766114,-0.768315,-0.724995,-0.783016,-0.718251,-0.751930,-0.778863,-0.577503,-0.513984,-0.608052,-0.744205,-0.659004,-0.736008,-0.763758
-0.820067,-0.805351,-0.774529,-0.800406,-0.763246,-0.794618,-0.779229,-0.787168,-1.000000,-0.791809,-0.650106,-0.675006,-0.702088,-0.630767,-0.738217,-0.768288,-0.791820,-0.777007,-0.773036,-0.784338,-0.721227,-0.779648,-0.714650,-0.744199,-0.764604,-0.628270,-0.608558,-0.663573,-0.746016,-0.667270,-0.740909,-0.769556
-0.819829,-0.813920,-0.783724,-0.805981,-0.767139,-0.798526,-0.787117,-0.790989,-1.000000,-0.786588,-0.647581,-0.664785,-0.685349,-0.630134,-0.735514,-0.765586,-0.790040,-0.777453,-0.767092,-0.788028,-0.745509,-0.779047,-0.724570,-0.763546,-0.771136,-0.635210,-0.607963,-0.649434,-0.715780,-0.669528,-0.737099,-0.764304
-0.820699,-0.811835,-0.782880,-0.789688,-0.761423,-0.799565,-0.789043,-0.791306,-1.000000,-0.792828,-0.655958,-0.681064,-0.700722,-0.620249,-0.738739,-0.770405,-0.789726,-0.771556,-0.771645,-0.783063,-0.741190,-0.790678,-0.721982,-0.727696,-0.757618,-0.649180,-0.609544,-0.650116,-0.716921,-0.663224,-0.741709,-0.772572
-0.818734,-0.796983,-0.773194,-0.787601,-0.751529,-0.781520,-0.774846,-0.777577,-1.000000,-0.782909,-0.640131,-0.649725,-0.683712,-0.614633,-0.729848,-0.761194,-0.781769,-0.769488,-0.761212,-0.779796,-0.731919,-0.782388,-0.711700,-0.733441,-0.752500,-0.632176,-0.591628,-0.631602,-0.679632,-0.631702,-0.724910,-0.761676
-0.820265,-0.820147,-0.786323,-0.778506,-0.746793,-0.790589,-0.770709,-0.778183,-1.000000,-0.788232,-0.645238,-0.660045,-0.686096,-0.624708,-0.735895,-0.765597,-0.790074,-0.780735,-0.775821,-0.756966,-0.743382,-0.785950,-0.703806,-0.729959,-0.746985,-0.632924,-0.598590,-0.648450,-0.733742,-0.661054,-0.736828,-0.766525
-0.822459,-0.822915,-0.789921,-0.789807,-0.757325,-0.792179,-0.769958,-0.773146,-1.000000,-0.790569,-0.648672,-0.658136,-0.678961,-0.613349,-0.737379,-0.767815,-0.792614,-0.783001,-0.768960,-0.769291,-0.742308,-0.785392,-0.705267,-0.728609,-0.745021,-0.638221,-0.618810,-0.660922,-0.719312,-0.649932,-0.740080,-0.769002
-0.820780,-0.824311,-0.791455,-0.786913,-0.751435,-0.790543,-0.766483,-0.760954,-1.000000,-0.801081,-0.672194,-0.690590,-0.698909,-0.633444,-0.739392,-0.768310,-0.789811,-0.780239,-0.760521,-0.749133,-0.736037,-0.783232,-0.704240,-0.715670,-0.751638,-0.635378,-0.624111,-0.670130,-0.744215,-0.660237,-0.739717,-0.766698
-0.824441,-0.824879,-0.789970,-0.788080,-0.742877,-0.792107,-0.764337,-0.765075,-1.000000,-0.792926,-0.667726,-0.681188,-0.709278,-0.646276,-0.743430,-0.770654,-0.790583,-0.780588,-0.757228,-0.772637,-0.731461,-0.785224,-0.707110,-0.729025,-0.750313,-0.651390,-0.637682,-0.677688,-0.744313,-0.669091,-0.743669,-0.770397
-0.824110,-0.827082,-0.786505,-0.780908,-0.741541,-0.792027,-0.750671,-0.755572,-1.000000,-0.790159,-0.680248,-0.686526,-0.701290,-0.647513,-0.745981,-0.772640,-0.792452,-0.782075,-0.766157,-0.767714,-0.704661,-0.784197,-0.694536,-0.719844,-0.747212,-0.658545,-0.641830,-0.676146,-0.737775,-0.670396,-0.745747,-0.771476
-0.807707,-0.810629,-0.772998,-0.774598,-0.721814,-0.781104,-0.759163,-0.751714,-1.000000,-0.777725,-0.651506,-0.656747,-0.687859,-0.640914,-0.733770,-0.757326,-0.774764,-0.762201,-0.761021,-0.761073,-0.696111,-0.767271,-0.695424,-0.715342,-0.734338,-0.648869,-0.618198,-0.639783,-0.690050,-0.637908,-0.726981,-0.753271
-0.805084,-0.811911,-0.767442,-0.771772,-0.719186,-0.768566,-0.750752,-0.754923,-1.000000,-0.779451,-0.658275,-0.661756,-0.668255,-0.619929,-0.728745,-0.755760,-0.776619,-0.766005,-0.747713,-0.754189,-0.700576,-0.762845,-0.690043,-0.715272,-0.733093,-0.649222,-0.620982,-0.655043,-0.696880,-0.644833,-0.728206,-0.752923
-0.804473,-0.815184,-0.780021,-0.777191,-0.718804,-0.767912,-0.740752,-0.748437,-1.000000,-0.767739,-0.642802,-0.637027,-0.653827,-0.625878,-0.730490,-0.757405,-0.771973,-0.762238,-0.757285,-0.761043,-0.705272,-0.765935,-0.682126,-0.706919,-0.734711,-0.640993,-0.596087,-0.640882,-0.665840,-0.614329,-0.725674,-0.751121
-0.799283,-0.814587,-0.778711,-0.770711,-0.714069,-0.774916,-0.754122,-0.750201,-1.000000,-0.759071,-0.652425,-0.653338,-0.661717,-0.628530,-0.719924,-0.746108,-0.763293,-0.752518,-0.752656,-0.749970,-0.693195,-0.769575,-0.695478,-0.716399,-0.728925,-0.642666,-0.609435,-0.657775,-0.678324,-0.635170,-0.716272,-0.739849
-0.819988,-0.822855,-0.764025,-0.778759,-0.713482,-0.772736,-0.753666,-0.756122,-1.000000,-0.781704,-0.666111,-0.666196,-0.687917,-0.650368,-0.744805,-0.766799,-0.771653,-0.757321,-0.745201,-0.755679,-0.698154,-0.764561,-0.683709,-0.710883,-0.733164,-0.642180,-0.618859,-0.667833,-0.704940,-0.663030,-0.746302,-0.768492
-0.818404,-0.820241,-0.778349,-0.784058,-0.726183,-0.776721,-0.754002,-0.759617,-1.000000,-0.769606,-0.666207,-0.678166,-0.678275,-0.653852,-0.750942,-0.774011,-0.784527,-0.767951,-0.736328,-0.760401,-0.706932,-0.767753,-0.687907,-0.715603,-0.733854,-0.652406,-0.622321,-0.667032,-0.710737,-0.671077,-0.749876,-0.772681
-0.813550,-0.819856,-0.777153,-0.778317,-0.719327,-0.770815,-0.752412,-0.760625,-1.000000,-0.779563,-0.654556,-0.669780,-0.690989,-0.645901,-0.747201,-0.769072,-0.779425,-0.764881,-0.745150,-0.756117,-0.701781,-0.762212,-0.681244,-0.713494,-0.729818,-0.642605,-0.609170,-0.651555,-0.722194,-0.669257,-0.744354,-0.764640
-0.809626,-0.816044,-0.776142,-0.771305,-0.723013,-0.757290,-0.740574,-0.759828,-1.000000,-0.756129,-0.622319,-0.647303,-0.652685,-0.617772,-0.736302,-0.763898,-0.780979,-0.765579,-0.739473,-0.742243,-0.705744,-0.752791,-0.660619,-0.710645,-0.732244,-0.620915,-0.596216,-0.644887,-0.699477,-0.636459,-0.732560,-0.761267
-0.796748,-0.801980,-0.769619,-0.775276,-0.712024,-0.763751,-0.739888,-0.752582,-1.000000,-0.774828,-0.649882,-0.642574,-0.693560,-0.625104,-0.717141,-0.746992,-0.768806,-0.761460,-0.739124,-0.754990,-0.692678,-0.750299,-0.674220,-0.708897,-0.732815,-0.655518,-0.625337,-0.657061,-0.731022,-0.657495,-0.729251,-0.754601
-0.818918,-0.822367,-0.783642,-0.772070,-0.734661,-0.768894,-0.739587,-0.758692,-1.000000,-0.782191,-0.657688,-0.685126,-0.696964,-0.643129,-0.749733,-0.774166,-0.782408,-0.765274,-0.758826,-0.754590,-0.701086,-0.749870,-0.650959,-0.681286,-0.726136,-0.634420,-0.602430,-0.640280,-0.727908,-0.655595,-0.747960,-0.773686
-0.809517,-0.816162,-0.765568,-0.771245,-0.723648,-0.761955,-0.742370,-0.750312,-1.000000,-0.767409,-0.660245,-0.666628,-0.670109,-0.591304,-0.713486,-0.746653,-0.775814,-0.762853,-0.716517,-0.743965,-0.679868,-0.747804,-0.672038,-0.699726,-0.727922,-0.622041,-0.600327,-0.611588,-0.701670,-0.624405,-0.714890,-0.746891
-0.823344,-0.824375,-0.775542,-0.783446,-0.696836,-0.771721,-0.758039,-0.762976,-1.000000,-0.778127,-0.668705,-0.679664,-0.713619,-0.671458,-0.764704,-0.783889,-0.783621,-0.768895,-0.730743,-0.752947,-0.610593,-0.766712,-0.688249,-0.713716,-0.741147,-0.648019,-0.610537,-0.644930,-0.724048,-0.668974,-0.761638,-0.780888
-0.822836,-0.829551,-0.774863,-0.776169,-0.721854,-0.775515,-0.735501,-0.741743,-1.000000,-0.787120,-0.663318,-0.681864,-0.679500,-0.635785,-0.765694,-0.786727,-0.780004,-0.748983,-0.722818,-0.742880,-0.696671,-0.756994,-0.662513,-0.693262,-0.724201,-0.630461,-0.601439,-0.635694,-0.707368,-0.654328,-0.758394,-0.780297
-0.822346,-0.826625,-0.766592,-0.745911,-0.717116,-0.764536,-0.756015,-0.755522,-1.000000,-0.784076,-0.677315,-0.709240,-0.700926,-0.654364,-0.741509,-0.762008,-0.768718,-0.749649,-0.737028,-0.753776,-0.708999,-0.747937,-0.672554,-0.698295,-0.730669,-0.635205,-0.615285,-0.643409,-0.719104,-0.661329,-0.737219,-0.761531
-0.823585,-0.829839,-0.783253,-0.777036,-0.740296,-0.778876,-0.758340,-0.759658,-1.000000,-0.773997,-0.679192,-0.686037,-0.693580,-0.650363,-0.763498,-0.786443,-0.796257,-0.777629,-0.758031,-0.754868,-0.724170,-0.763234,-0.684010,-0.709901,-0.737963,-0.675012,-0.631452,-0.648528,-0.689647,-0.648450,-0.755490,-0.779389
-0.815375,-0.820503,-0.770894,-0.769783,-0.734058,-0.747927,-0.750656,-0.763705,-1.000000,-0.778495,-0.644641,-0.680666,-0.695260,-0.645646,-0.751287,-0.776640,-0.785653,-0.767150,-0.726197,-0.744662,-0.718547,-0.748727,-0.670566,-0.693488,-0.708305,-0.622481,-0.550227,-0.583020,-0.683548,-0.604136,-0.735826,-0.767089
-0.825502,-0.828969,-0.779556,-0.778901,-0.736867,-0.774083,-0.758187,-0.766888,-1.000000,-0.778464,-0.655699,-0.672966,-0.701607,-0.650796,-0.761718,-0.785053,-0.789868,-0.768188,-0.743551,-0.753606,-0.716790,-0.761874,-0.684023,-0.709274,-0.724157,-0.651428,-0.609311,-0.638263,-0.711901,-0.657745,-0.757472,-0.783290
-0.823894,-0.825681,-0.773906,-0.774633,-0.727445,-0.771998,-0.755972,-0.763026,-1.000000,-0.776944,-0.642580,-0.682517,-0.692271,-0.656680,-0.763490,-0.786186,-0.790877,-0.769413,-0.738780,-0.745889,-0.717233,-0.760590,-0.686288,-0.708604,-0.728086,-0.645138,-0.600760,-0.637107,-0.715433,-0.655962,-0.759831,-0.783929
-0.822884,-0.822659,-0.768476,-0.767587,-0.733606,-0.757003,-0.748629,-0.756799,-1.000000,-0.772631,-0.618774,-0.662125,-0.689338,-0.646844,-0.756116,-0.779177,-0.786297,-0.765168,-0.736596,-0.726401,-0.706305,-0.751635,-0.670023,-0.705601,-0.729803,-0.637962,-0.587694,-0.627926,-0.709244,-0.615850,-0.753839,-0.776099
-0.817742,-0.816616,-0.771356,-0.774427,-0.737099,-0.762419,-0.736716,-0.750396,-1.000000,-0.746091,-0.606640,-0.643043,-0.673887,-0.644348,-0.756264,-0.780547,-0.786372,-0.766332,-0.738019,-0.746537,-0.705302,-0.757242,-0.649442,-0.685295,-0.721088,-0.630351,-0.573331,-0.611305,-0.704636,-0.649479,-0.751957,-0.778981
-0.815873,-0.814993,-0.763396,-0.774702,-0.737289,-0.766997,-0.737578,-0.747401,-1.000000,-0.764626,-0.626297,-0.654258,-0.664336,-0.634419,-0.751346,-0.775930,-0.781529,-0.767385,-0.737193,-0.745652,-0.702677,-0.763862,-0.660545,-0.677307,-0.699649,-0.630628,-0.575080,-0.594498,-0.672310,-0.634885,-0.751049,-0.779903
-0.811099,-0.812384,-0.755450,-0.775555,-0.731321,-0.766468,-0.752370,-0.763084,-1.000000,-0.779593,-0.622299,-0.665610,-0.691727,-0.639234,-0.741536,-0.764674,-0.771890,-0.754463,-0.727284,-0.742832,-0.697870,-0.761741,-0.682297,-0.723496,-0.761371,-0.638440,-0.583670,-0.622530,-0.739576,-0.661828,-0.749009,-0.772141
-0.809105,-0.802225,-0.754981,-0.780772,-0.730628,-0.761142,-0.722169,-0.746899,-1.000000,-0.784132,-0.638019,-0.670035,-0.702121,-0.663105,-0.750313,-0.772028,-0.772243,-0.745677,-0.713893,-0.738184,-0.675758,-0.739962,-0.654538,-0.694652,-0.754651,-0.648438,-0.599916,-0.634982,-0.734613,-0.666489,-0.753378,-0.776613
-0.807943,-0.803376,-0.736373,-0.771985,-0.719674,-0.764488,-0.735840,-0.752500,-1.000000,-0.766321,-0.611193,-0.662177,-0.688593,-0.628903,-0.728307,-0.755108,-0.769026,-0.746997,-0.714365,-0.739837,-0.694601,-0.756609,-0.656871,-0.697509,-0.747294,-0.599287,-0.549561,-0.601082,-0.732768,-0.650556,-0.737798,-0.768260
-0.820888,-0.815545,-0.759536,-0.781066,-0.720952,-0.767585,-0.749780,-0.754457,-1.000000,-0.763672,-0.616439,-0.662259,-0.688988,-0.650690,-0.752469,-0.776896,-0.785668,-0.763503,-0.731326,-0.748196,-0.698603,-0.764793,-0.685231,-0.720967,-0.750974,-0.628139,-0.571645,-0.612841,-0.730925,-0.665378,-0.758158,-0.784215
-0.818930,-0.816192,-0.758145,-0.787878,-0.731775,-0.761790,-0.751881,-0.757767,-1.000000,-0.765859,-0.618372,-0.657320,-0.684824,-0.650213,-0.753085,-0.778227,-0.794967,-0.778676,-0.723484,-0.749165,-0.699004,-0.759304,-0.676806,-0.719979,-0.751850,-0.631233,-0.575250,-0.617897,-0.706437,-0.643501,-0.750423,-0.779056
-0.822018,-0.816069,-0.758338,-0.787486,-0.727748,-0.761857,-0.746628,-0.751379,-1.000000,-0.761553,-0.609719,-0.658577,-0.691529,-0.647496,-0.755033,-0.779715,-0.794497,-0.777247,-0.727068,-0.750193,-0.696227,-0.763215,-0.680726,-0.710668,-0.738030,-0.622789,-0.565740,-0.616694,-0.732124,-0.652187,-0.757404,-0.784318
-0.813663,-0.808891,-0.753491,-0.780811,-0.705189,-0.760496,-0.761492,-0.765343,-1.000000,-0.763773,-0.615934,-0.657671,-0.694727,-0.637069,-0.741011,-0.767394,-0.785509,-0.771332,-0.722389,-0.745212,-0.718027,-0.763984,-0.694511,-0.720979,-0.752405,-0.629758,-0.572608,-0.613620,-0.723775,-0.652525,-0.745536,-0.771308
-0.790167,-0.782976,-0.745297,-0.761025,-0.730700,-0.744568,-0.741023,-0.739450,-1.000000,-0.754809,-0.603895,-0.644639,-0.671045,-0.617232,-0.710167,-0.736439,-0.750300,-0.728712,-0.711021,-0.734351,-0.697683,-0.735929,-0.675209,-0.698304,-0.739037,-0.596611,-0.547177,-0.580337,-0.690298,-0.631577,-0.713623,-0.739921
-0.809804,-0.800921,-0.754415,-0.777620,-0.743427,-0.758255,-0.755742,-0.774758,-1.000000,-0.763177,-0.606037,-0.658027,-0.685184,-0.629274,-0.735448,-0.762425,-0.777498,-0.756219,-0.715857,-0.733587,-0.690451,-0.751011,-0.676880,-0.724331,-0.757002,-0.624680,-0.552021,-0.601769,-0.723797,-0.648991,-0.744509,-0.774195
-0.824575,-0.820749,-0.772215,-0.791461,-0.753429,-0.782797,-0.768427,-0.775207,-1.000000,-0.775443,-0.629426,-0.655006,-0.687251,-0.615033,-0.744528,-0.778292,-0.796090,-0.760759,-0.731573,-0.761721,-0.713162,-0.781204,-0.703125,-0.732239,-0.771989,-0.640124,-0.591584,-0.624310,-0.702478,-0.622804,-0.747848,-0.781285
-0.819839,-0.815289,-0.766155,-0.783910,-0.758293,-0.778766,-0.756186,-0.750969,-1.000000,-0.748877,-0.614822,-0.644496,-0.674690,-0.641067,-0.748993,-0.776378,-0.792387,-0.771128,-0.731046,-0.752515,-0.711863,-0.779009,-0.700904,-0.727825,-0.755479,-0.632642,-0.583753,-0.609410,-0.702756,-0.642815,-0.751069,-0.779801
-0.814551,-0.811512,-0.743092,-0.781389,-0.741734,-0.759496,-0.766572,-0.773223,-1.000000,-0.774391,-0.627128,-0.656619,-0.702854,-0.621280,-0.720459,-0.751599,-0.769179,-0.752478,-0.716698,-0.743932,-0.705114,-0.764019,-0.695784,-0.728815,-0.756544,-0.626254,-0.580037,-0.616068,-0.739276,-0.643663,-0.727549,-0.760512
-0.817171,-0.810199,-0.760823,-0.788619,-0.754001,-0.778679,-0.764169,-0.778756,-1.000000,-0.748646,-0.603598,-0.631995,-0.675864,-0.652596,-0.750822,-0.776760,-0.795167,-0.775469,-0.716985,-0.738313,-0.705355,-0.776044,-0.694149,-0.732920,-0.760747,-0.635605,-0.585042,-0.616094,-0.727020,-0.659793,-0.749864,-0.776357
-0.806346,-0.792409,-0.772234,-0.793346,-0.763047,-0.786666,-0.771395,-0.778379,-1.000000,-0.746872,-0.596756,-0.615409,-0.639796,-0.616269,-0.741622,-0.771990,-0.791798,-0.772342,-0.740592,-0.749517,-0.716730,-0.787790,-0.705082,-0.734040,-0.752261,-0.619603,-0.577368,-0.618681,-0.684314,-0.635674,-0.742419,-0.772253
-0.818086,-0.811224,-0.772243,-0.788594,-0.765395,-0.784877,-0.777447,-0.778269,-1.000000,-0.757867,-0.600181,-0.631771,-0.670022,-0.618214,-0.733926,-0.765175,-0.790096,-0.775420,-0.739790,-0.744542,-0.702123,-0.787887,-0.707003,-0.735170,-0.762957,-0.622269,-0.572077,-0.614979,-0.714344,-0.593653,-0.727313,-0.763069
-0.824336,-0.813597,-0.770289,-0.787729,-0.750963,-0.785581,-0.777587,-0.775350,-1.000000,-0.785219,-0.630862,-0.667452,-0.696382,-0.623412,-0.739277,-0.771844,-0.792146,-0.772048,-0.737804,-0.754583,-0.717291,-0.775930,-0.711124,-0.740493,-0.771899,-0.645469,-0.593795,-0.628233,-0.719837,-0.653804,-0.750346,-0.779980
-0.822133,-0.812546,-0.757675,-0.773885,-0.745670,-0.783364,-0.760659,-0.754191,-1.000000,-0.780507,-0.633553,-0.674226,-0.700879,-0.633714,-0.744091,-0.772574,-0.792096,-0.774409,-0.731938,-0.740254,-0.702835,-0.773619,-0.684768,-0.695287,-0.764965,-0.638952,-0.589993,-0.632893,-0.738874,-0.644901,-0.749210,-0.779299
-0.824867,-0.809328,-0.760009,-0.794083,-0.762829,-0.791493,-0.782323,-0.772837,-1.000000,-0.794526,-0.635261,-0.684187,-0.705646,-0.644141,-0.750710,-0.779566,-0.799670,-0.782422,-0.691789,-0.760343,-0.729355,-0.795906,-0.718068,-0.745827,-0.769982,-0.646486,-0.584159,-0.626108,-0.742104,-0.643756,-0.750489,-0.782838
-0.823300,-0.811388,-0.767008,-0.792395,-0.759879,-0.788848,-0.771901,-0.780996,-1.000000,-0.790793,-0.634151,-0.682649,-0.709890,-0.642146,-0.744578,-0.774271,-0.795653,-0.780265,-0.743730,-0.754976,-0.717742,-0.792180,-0.697778,-0.745439,-0.773452,-0.644013,-0.590991,-0.626271,-0.736677,-0.633806,-0.742346,-0.777114
-0.792416,-0.796721,-0.746077,-0.765249,-0.730772,-0.758253,-0.759241,-0.763685,-1.000000,-0.774632,-0.597892,-0.661255,-0.711060,-0.624001,-0.722625,-0.747405,-0.761422,-0.745118,-0.727973,-0.727854,-0.693394,-0.751271,-0.665377,-0.710698,-0.765746,-0.600675,-0.556939,-0.621778,-0.747019,-0.637051,-0.729661,-0.754637
-0.819523,-0.808859,-0.773826,-0.771729,-0.745313,-0.790466,-0.782255,-0.775371,-1.000000,-0.779526,-0.634749,-0.682180,-0.703782,-0.608357,-0.732655,-0.764673,-0.793797,-0.778863,-0.752680,-0.751607,-0.712168,-0.788077,-0.703999,-0.738092,-0.770244,-0.642721,-0.590179,-0.626603,-0.739978,-0.636238,-0.733873,-0.770705
-0.831177,-0.818050,-0.776082,-0.797777,-0.758135,-0.793988,-0.787596,-0.766262,-1.000000,-0.779861,-0.642189,-0.691302,-0.707871,-0.656794,-0.748391,-0.775101,-0.810428,-0.797800,-0.755796,-0.765708,-0.722750,-0.798416,-0.722569,-0.743131,-0.755839,-0.641540,-0.595355,-0.640923,-0.734779,-0.674825,-0.748705,-0.780292
-0.829767,-0.818179,-0.765067,-0.787626,-0.758433,-0.762232,-0.776453,-0.768000,-1.000000,-0.771794,-0.641526,-0.670574,-0.700433,-0.661676,-0.758980,-0.784858,-0.811676,-0.792805,-0.735835,-0.762485,-0.723289,-0.793268,-0.717111,-0.729523,-0.753992,-0.636042,-0.582723,-0.616051,-0.710596,-0.671771,-0.763673,-0.791424
-0.832436,-0.819110,-0.778255,-0.802801,-0.771559,-0.797401,-0.792560,-0.772869,-1.000000,-0.783252,-0.681916,-0.704312,-0.711591,-0.667658,-0.757976,-0.783598,-0.805978,-0.792080,-0.768248,-0.771093,-0.728825,-0.803187,-0.735776,-0.753341,-0.779472,-0.685559,-0.641058,-0.665085,-0.725635,-0.668177,-0.763868,-0.791805
-0.836953,-0.824906,-0.768361,-0.773758,-0.756299,-0.795091,-0.790902,-0.771701,-1.000000,-0.792800,-0.666352,-0.692281,-0.730097,-0.665365,-0.759781,-0.783480,-0.807457,-0.796832,-0.764300,-0.755812,-0.629466,-0.795354,-0.736382,-0.754546,-0.781879,-0.677971,-0.628250,-0.655697,-0.744003,-0.677238,-0.764757,-0.791837
-0.824944,-0.817538,-0.780159,-0.796853,-0.768779,-0.790394,-0.795013,-0.754779,-1.000000,-0.777772,-0.644957,-0.667485,-0.710052,-0.657995,-0.761713,-0.785634,-0.804267,-0.791977,-0.767797,-0.774193,-0.689068,-0.792295,-0.720670,-0.752532,-0.777056,-0.649106,-0.618733,-0.648258,-0.726958,-0.671117,-0.766558,-0.792614
-0.839735,-0.830540,-0.789329,-0.804881,-0.762218,-0.800527,-0.802796,-0.786435,-1.000000,-0.806168,-0.698132,-0.727547,-0.751563,-0.682626,-0.761096,-0.785990,-0.810206,-0.794227,-0.767263,-0.773327,-0.705946,-0.793256,-0.747655,-0.766487,-0.782841,-0.694273,-0.648823,-0.669376,-0.750912,-0.673655,-0.761990,-0.792511
-0.835070,-0.820311,-0.779341,-0.801952,-0.747694,-0.794159,-0.791461,-0.778747,-1.000000,-0.773452,-0.664423,-0.712306,-0.738603,-0.681627,-0.764900,-0.786713,-0.805088,-0.788999,-0.758190,-0.766978,-0.710857,-0.784547,-0.727353,-0.742232,-0.782376,-0.653007,-0.615188,-0.650217,-0.736827,-0.689607,-0.766693,-0.794312
-0.812062,-0.797419,-0.755610,-0.776958,-0.728976,-0.765273,-0.767575,-0.757333,-1.000000,-0.778289,-0.663864,-0.715630,-0.729820,-0.656603,-0.742190,-0.765864,-0.779796,-0.760771,-0.729460,-0.746788,-0.665041,-0.761645,-0.705754,-0.720302,-0.766472,-0.631635,-0.596646,-0.639069,-0.755302,-0.681254,-0.749146,-0.776928
-0.831829,-0.812843,-0.782421,-0.799299,-0.753707,-0.793585,-0.769451,-0.767548,-1.000000,-0.788063,-0.688878,-0.707903,-0.746438,-0.688586,-0.766957,-0.790052,-0.806899,-0.784485,-0.760418,-0.775646,-0.705875,-0.774380,-0.707197,-0.719397,-0.766465,-0.662924,-0.630814,-0.661533,-0.726196,-0.683595,-0.767016,-0.796657
-0.836842,-0.824222,-0.784939,-0.794250,-0.767841,-0.789434,-0.790434,-0.777858,-1.000000,-0.788005,-0.682473,-0.714715,-0.755503,-0.691325,-0.765802,-0.788868,-0.810734,-0.793786,-0.758776,-0.774409,-0.717688,-0.791311,-0.731908,-0.750903,-0.767494,-0.639372,-0.613768,-0.652825,-0.744082,-0.689882,-0.767049,-0.797101
-0.829718,-0.818160,-0.784260,-0.801984,-0.772634,-0.790857,-0.799370,-0.776857,-1.000000,-0.787398,-0.705021,-0.730325,-0.739788,-0.697122,-0.771832,-0.792354,-0.811107,-0.791141,-0.759323,-0.781546,-0.719591,-0.790115,-0.747280,-0.761134,-0.780550,-0.682021,-0.657023,-0.673425,-0.727533,-0.687341,-0.770835,-0.796766
-0.835155,-0.822139,-0.794796,-0.806471,-0.778110,-0.800867,-0.807663,-0.787174,-1.000000,-0.782221,-0.691024,-0.696937,-0.705722,-0.664013,-0.759891,-0.785516,-0.813471,-0.795403,-0.778566,-0.776488,-0.720341,-0.795258,-0.751098,-0.765808,-0.777987,-0.682011,-0.658637,-0.666574,-0.695989,-0.640818,-0.743667,-0.776556
-0.835688,-0.821088,-0.789532,-0.804257,-0.772058,-0.792224,-0.793148,-0.787226,-1.000000,-0.793893,-0.668750,-0.714283,-0.714330,-0.663677,-0.766904,-0.790613,-0.802441,-0.782192,-0.779975,-0.781264,-0.716872,-0.791521,-0.728208,-0.760908,-0.773092,-0.619986,-0.607212,-0.657640,-0.734711,-0.668622,-0.762976,-0.792305
-0.832006,-0.816177,-0.778671,-0.793913,-0.750925,-0.787140,-0.793370,-0.788498,-1.000000,-0.799316,-0.666685,-0.715795,-0.731245,-0.661374,-0.762017,-0.785725,-0.794552,-0.777809,-0.774794,-0.779074,-0.697572,-0.781402,-0.729981,-0.764224,-0.774250,-0.611729,-0.610945,-0.663612,-0.740102,-0.655019,-0.753981,-0.787294
-0.812698,-0.794256,-0.768305,-0.789376,-0.748157,-0.779688,-0.774345,-0.764089,-1.000000,-0.763309,-0.631199,-0.675235,-0.687286,-0.649522,-0.750806,-0.773902,-0.784375,-0.759156,-0.757108,-0.762378,-0.691079,-0.773391,-0.717889,-0.737312,-0.751940,-0.601350,-0.600296,-0.631347,-0.694015,-0.646484,-0.743420,-0.774390
-0.830478,-0.813180,-0.779376,-0.796044,-0.754893,-0.787714,-0.783772,-0.777099,-1.000000,-0.792656,-0.657873,-0.709948,-0.718552,-0.649771,-0.763447,-0.787009,-0.804797,-0.796152,-0.778261,-0.773167,-0.692359,-0.779762,-0.724835,-0.748109,-0.765711,-0.614027,-0.611814,-0.661188,-0.730950,-0.653130,-0.759463,-0.790630
-0.826218,-0.811455,-0.779198,-0.743709,-0.687649,-0.780261,-0.784334,-0.775982,-1.000000,-0.788864,-0.644892,-0.694600,-0.724676,-0.645155,-0.764384,-0.786136,-0.802864,-0.789805,-0.773616,-0.701536,-0.418005,-0.758818,-0.723615,-0.749821,-0.765215,-0.612292,-0.611013,-0.668712,-0.737642,-0.655978,-0.762937,-0.790730
-0.822267,-0.809917,-0.783308,-0.791421,-0.744725,-0.790112,-0.781248,-0.766815,-1.000000,-0.783949,-0.643244,-0.697106,-0.720116,-0.666038,-0.772267,-0.792989,-0.801228,-0.788035,-0.779000,-0.770429,-0.653323,-0.777756,-0.724422,-0.740653,-0.759649,-0.603605,-0.606740,-0.658856,-0.738519,-0.666317,-0.768611,-0.795806
-0.831340,-0.814497,-0.787429,-0.798653,-0.739032,-0.781848,-0.783548,-0.778413,-1.000000,-0.792168,-0.639497,-0.691292,-0.720077,-0.680372,-0.776276,-0.795471,-0.806174,-0.791458,-0.778743,-0.777268,-0.652894,-0.768932,-0.720935,-0.749494,-0.769735,-0.602939,-0.602401,-0.658707,-0.721028,-0.678546,-0.769339,-0.797618
-0.831406,-0.815910,-0.787219,-0.792701,-0.745887,-0.788068,-0.780298,-0.780896,-1.000000,-0.781062,-0.640479,-0.677332,-0.712697,-0.680344,-0.779236,-0.797937,-0.811003,-0.799395,-0.781930,-0.773552,-0.646498,-0.768468,-0.720345,-0.750063,-0.766328,-0.610162,-0.606280,-0.655468,-0.722098,-0.673110,-0.768856,-0.798074
-0.810713,-0.787219,-0.783994,-0.794710,-0.745393,-0.784095,-0.770105,-0.751724,-1.000000,-0.733747,-0.587842,-0.624150,-0.616300,-0.643155,-0.754881,-0.777874,-0.792572,-0.782167,-0.780541,-0.772975,-0.652624,-0.777058,-0.710702,-0.722597,-0.736984,-0.562808,-0.548041,-0.605257,-0.660477,-0.638608,-0.741435,-0.773648
-0.834347,-0.821189,-0.783651,-0.795493,-0.743250,-0.788969,-0.781293,-0.777711,-1.000000,-0.748577,-0.635321,-0.676357,-0.720842,-0.697134,-0.778266,-0.796424,-0.813316,-0.801716,-0.774781,-0.769180,-0.652392,-0.777903,-0.728914,-0.752964,-0.763140,-0.610163,-0.606204,-0.657484,-0.711653,-0.682422,-0.770902,-0.797374
-0.830260,-0.817658,-0.777373,-0.792068,-0.719444,-0.788369,-0.784322,-0.777359,-1.000000,-0.737043,-0.624504,-0.658099,-0.711204,-0.685363,-0.768814,-0.788494,-0.807461,-0.791441,-0.768896,-0.771235,-0.652149,-0.776371,-0.723432,-0.751350,-0.763086,-0.603205,-0.597935,-0.654962,-0.699158,-0.686119,-0.764815,-0.792757
-0.831867,-0.816802,-0.774283,-0.790010,-0.738324,-0.782788,-0.784403,-0.783130,-1.000000,-0.776533,-0.636502,-0.682738,-0.707000,-0.683800,-0.772425,-0.791365,-0.808199,-0.796531,-0.762890,-0.770613,-0.651515,-0.774270,-0.725407,-0.750886,-0.762918,-0.610150,-0.603718,-0.659385,-0.720403,-0.693499,-0.765665,-0.793920
-0.834478,-0.821535,-0.782730,-0.791815,-0.732216,-0.795541,-0.784508,-0.780855,-1.000000,-0.782192,-0.642303,-0.705770,-0.728262,-0.689066,-0.775662,-0.792635,-0.807780,-0.793490,-0.767632,-0.777634,-0.651460,-0.782308,-0.717841,-0.747394,-0.764427,-0.596499,-0.599131,-0.658729,-0.742574,-0.695891,-0.770313,-0.796018
-0.826478,-0.815436,-0.776431,-0.791460,-0.721136,-0.788646,-0.778905,-0.782277,-1.000000,-0.785874,-0.641043,-0.693908,-0.712808,-0.684392,-0.770129,-0.788109,-0.803926,-0.792462,-0.767161,-0.777028,-0.641568,-0.777003,-0.724221,-0.747430,-0.765622,-0.601260,-0.600307,-0.665517,-0.741930,-0.686278,-0.763972,-0.790336
-0.777407,-0.775090,-0.728546,-0.737908,-0.675739,-0.725934,-0.728244,-0.736937,-1.000000,-0.744318,-0.580904,-0.667161,-0.679663,-0.620656,-0.686001,-0.708967,-0.746964,-0.746733,-0.716843,-0.745402,-0.627579,-0.721710,-0.630432,-0.675485,-0.738858,-0.520198,-0.503310,-0.576201,-0.693932,-0.620517,-0.679252,-0.712740
-0.812134,-0.807108,-0.771260,-0.779972,-0.725528,-0.772237,-0.752131,-0.755559,-1.000000,-0.768595,-0.640381,-0.692469,-0.722971,-0.677396,-0.764927,-0.778868,-0.781762,-0.767599,-0.746606,-0.749918,-0.641834,-0.769826,-0.709546,-0.715367,-0.732257,-0.593727,-0.590825,-0.654302,-0.739222,-0.679170,-0.751623,-0.777863
-0.826042,-0.810067,-0.771919,-0.788804,-0.734783,-0.785319,-0.783407,-0.785046,-1.000000,-0.779135,-0.643756,-0.695426,-0.720233,-0.683592,-0.768015,-0.786327,-0.798244,-0.783998,-0.740289,-0.767042,-0.647481,-0.765594,-0.713951,-0.747923,-0.760134,-0.600672,-0.588578,-0.645100,-0.731664,-0.678739,-0.759767,-0.788252
-0.827168,-0.814742,-0.779917,-0.792262,-0.738854,-0.789163,-0.783713,-0.783354,-1.000000,-0.760155,-0.631551,-0.659389,-0.700336,-0.670441,-0.771877,-0.791915,-0.806209,-0.786549,-0.748555,-0.768250,-0.652105,-0.773453,-0.731142,-0.750119,-0.759298,-0.605322,-0.594201,-0.657969,-0.716350,-0.671053,-0.761762,-0.789892
-0.820630,-0.798950,-0.760398,-0.792029,-0.740674,-0.789738,-0.785186,-0.788418,-1.000000,-0.767279,-0.625526,-0.666083,-0.685751,-0.660937,-0.763608,-0.785207,-0.801193,-0.784393,-0.730497,-0.745973,-0.650568,-0.770156,-0.724799,-0.747425,-0.756838,-0.593259,-0.577910,-0.652443,-0.700647,-0.671122,-0.755428,-0.781810
-0.819587,-0.804454,-0.730295,-0.757520,-0.723787,-0.775947,-0.779861,-0.785297,-1.000000,-0.766822,-0.611541,-0.645853,-0.681020,-0.663184,-0.762483,-0.780246,-0.795578,-0.783392,-0.702098,-0.739034,-0.616175,-0.748482,-0.712269,-0.738543,-0.752368,-0.587473,-0.571344,-0.643772,-0.685246,-0.668216,-0.755822,-0.781870
-0.783277,-0.779276,-0.742987,-0.761675,-0.727180,-0.739540,-0.744248,-0.754286,-1.000000,-0.720576,-0.578509,-0.594283,-0.662471,-0.636998,-0.742396,-0.758588,-0.771127,-0.759291,-0.720946,-0.728046,-0.646154,-0.727379,-0.681488,-0.704690,-0.685276,-0.559802,-0.554295,-0.612710,-0.701455,-0.664658,-0.732785,-0.753994
-0.816898,-0.807028,-0.770702,-0.788182,-0.738965,-0.781988,-0.775298,-0.778273,-1.000000,-0.766266,-0.633776,-0.691208,-0.714105,-0.657781,-0.754312,-0.775184,-0.784314,-0.767980,-0.739117,-0.761163,-0.654399,-0.775387,-0.714994,-0.733223,-0.743512,-0.585503,-0.591280,-0.660771,-0.741419,-0.681166,-0.750690,-0.775360
-0.816706,-0.791847,-0.759250,-0.786692,-0.739854,-0.786736,-0.783897,-0.782189,-1.000000,-0.777556,-0.637541,-0.687047,-0.719205,-0.662331,-0.766742,-0.785428,-0.793930,-0.780229,-0.742307,-0.757280,-0.653665,-0.780486,-0.731375,-0.749404,-0.759167,-0.617976,-0.615202,-0.676177,-0.739206,-0.679513,-0.758960,-0.781874
-0.818987,-0.809873,-0.767713,-0.785234,-0.739542,-0.789915,-0.779699,-0.783333,-1.000000,-0.781954,-0.641123,-0.684996,-0.705070,-0.652273,-0.764285,-0.782801,-0.796703,-0.789085,-0.749376,-0.759042,-0.664145,-0.787340,-0.731425,-0.753351,-0.760695,-0.610513,-0.607278,-0.675714,-0.744263,-0.671729,-0.755317,-0.778880
-0.820723,-0.810704,-0.766243,-0.784715,-0.731441,-0.782506,-0.778651,-0.788827,-1.000000,-0.774214,-0.645288,-0.679583,-0.712008,-0.658854,-0.764501,-0.784247,-0.798079,-0.784710,-0.743015,-0.745639,-0.653464,-0.776174,-0.715564,-0.753508,-0.760673,-0.618090,-0.617165,-0.677168,-0.740898,-0.687604,-0.759623,-0.781751
-0.823471,-0.814418,-0.768083,-0.790604,-0.743727,-0.793037,-0.789594,-0.801220,-1.000000,-0.784998,-0.645451,-0.678439,-0.705726,-0.651959,-0.762720,-0.782694,-0.801848,-0.791009,-0.735140,-0.757873,-0.662762,-0.783703,-0.718358,-0.755031,-0.777829,-0.618428,-0.609717,-0.679641,-0.729277,-0.681394,-0.760160,-0.782105
-0.820345,-0.811810,-0.769459,-0.788968,-0.736860,-0.794220,-0.794776,-0.799581,-1.000000,-0.776059,-0.630711,-0.666250,-0.699479,-0.649571,-0.763351,-0.783017,-0.798542,-0.785872,-0.727123,-0.754756,-0.661223,-0.781279,-0.733115,-0.756479,-0.777135,-0.627419,-0.609371,-0.660945,-0.711017,-0.669400,-0.757739,-0.779026
-0.818728,-0.807899,-0.762920,-0.789602,-0.737059,-0.792826,-0.793859,-0.798534,-1.000000,-0.785495,-0.617795,-0.661839,-0.701176,-0.642831,-0.755254,-0.776384,-0.797137,-0.787019,-0.739775,-0.761787,-0.661564,-0.784406,-0.735611,-0.757590,-0.778846,-0.588612,-0.585846,-0.664093,-0.712306,-0.633514,-0.743381,-0.771796
-0.829818,-0.818304,-0.779522,-0.798428,-0.745476,-0.802543,-0.806405,-0.795627,-1.000000,-0.773851,-0.631351,-0.665297,-0.623102,-0.594138,-0.743728,-0.780165,-0.806723,-0.788698,-0.745288,-0.762407,-0.661710,-0.787376,-0.750510,-0.763389,-0.773052,-0.641335,-0.612871,-0.676105,-0.693403,-0.645935,-0.741846,-0.781771
-0.830786,-0.821770,-0.780336,-0.801779,-0.761494,-0.808136,-0.807717,-0.795376,-1.000000,-0.784548,-0.630426,-0.671293,-0.727662,-0.687507,-0.776973,-0.794467,-0.813056,-0.801590,-0.745894,-0.744347,-0.684321,-0.797791,-0.751400,-0.764144,-0.778289,-0.625092,-0.593310,-0.669725,-0.751447,-0.709078,-0.775276,-0.792730
-0.833905,-0.821556,-0.778425,-0.803044,-0.758259,-0.803880,-0.805851,-0.790095,-1.000000,-0.771680,-0.625394,-0.668091,-0.714880,-0.688505,-0.784671,-0.801982,-0.814757,-0.802660,-0.746091,-0.759362,-0.674990,-0.794498,-0.749585,-0.756375,-0.774734,-0.590037,-0.557719,-0.651806,-0.754475,-0.713105,-0.781384,-0.797691
-0.822667,-0.808230,-0.745811,-0.783634,-0.744473,-0.795225,-0.804742,-0.792950,-1.000000,-0.780830,-0.634552,-0.684586,-0.725777,-0.659292,-0.771768,-0.788819,-0.802338,-0.791486,-0.720083,-0.745214,-0.665590,-0.786727,-0.749884,-0.764011,-0.774764,-0.613203,-0.599551,-0.671437,-0.759260,-0.700234,-0.768280,-0.788199
-0.828225,-0.815637,-0.768498,-0.792630,-0.740202,-0.801812,-0.807817,-0.795440,-1.000000,-0.778128,-0.622841,-0.660057,-0.712551,-0.693749,-0.780851,-0.796346,-0.805418,-0.792654,-0.734733,-0.752159,-0.630810,-0.794658,-0.743878,-0.761715,-0.779312,-0.641346,-0.607650,-0.673844,-0.718966,-0.702446,-0.775446,-0.793981
-0.831538,-0.819396,-0.767804,-0.797110,-0.765963,-0.801005,-0.808272,-0.799944,-1.000000,-0.787265,-0.647458,-0.677409,-0.718034,-0.675801,-0.783771,-0.799550,-0.812068,-0.801131,-0.732062,-0.767366,-0.745710,-0.790683,-0.745404,-0.769139,-0.780922,-0.650180,-0.618545,-0.682591,-0.753957,-0.700126,-0.779555,-0.796418
-0.826079,-0.814047,-0.766340,-0.796847,-0.769969,-0.793418,-0.804936,-0.794010,-1.000000,-0.782177,-0.636419,-0.674282,-0.719335,-0.689889,-0.783031,-0.801028,-0.814424,-0.800129,-0.735193,-0.766943,-0.739130,-0.793891,-0.747311,-0.761748,-0.777943,-0.631560,-0.604063,-0.668716,-0.745935,-0.706115,-0.782009,-0.800413
-0.830669,-0.819109,-0.768374,-0.795270,-0.749915,-0.792224,-0.805793,-0.794895,-1.000000,-0.778173,-0.640561,-0.681800,-0.734326,-0.690640,-0.780460,-0.799005,-0.814510,-0.803197,-0.735438,-0.768259,-0.736953,-0.792414,-0.744440,-0.764186,-0.773409,-0.636865,-0.596031,-0.659737,-0.756065,-0.706663,-0.778134,-0.798802
-0.824464,-0.812129,-0.759891,-0.799207,-0.750076,-0.794752,-0.802725,-0.795501,-1.000000,-0.785095,-0.644427,-0.684108,-0.734914,-0.675709,-0.776103,-0.796345,-0.812163,-0.800465,-0.730431,-0.768781,-0.731409,-0.790942,-0.740278,-0.764013,-0.774782,-0.639677,-0.602083,-0.670695,-0.752465,-0.709090,-0.780914,-0.798837
-0.811346,-0.809880,-0.754758,-0.782515,-0.741893,-0.791437,-0.803076,-0.788037,-1.000000,-0.759936,-0.602570,-0.656694,-0.679088,-0.632710,-0.741808,-0.768007,-0.797678,-0.790031,-0.717648,-0.759694,-0.731734,-0.788394,-0.741980,-0.762578,-0.757333,-0.615268,-0.552787,-0.616141,-0.710318,-0.686615,-0.743878,-0.767543
-0.823002,-0.809029,-0.759791,-0.795102,-0.735603,-0.790217,-0.796168,-0.782197,-1.000000,-0.795777,-0.644372,-0.670209,-0.726761,-0.688337,-0.776999,-0.792780,-0.801362,-0.789543,-0.728810,-0.769184,-0.735296,-0.791452,-0.739625,-0.761202,-0.780647,-0.651011,-0.596695,-0.652167,-0.729278,-0.694815,-0.779595,-0.795632
-0.826415,-0.815259,-0.763967,-0.796432,-0.752491,-0.787851,-0.778644,-0.777157,-1.000000,-0.777573,-0.647071,-0.675460,-0.693527,-0.665713,-0.774285,-0.795424,-0.806370,-0.790861,-0.729024,-0.766905,-0.727186,-0.788091,-0.714603,-0.744819,-0.764324,-0.638247,-0.608235,-0.674584,-0.735906,-0.694382,-0.777272,-0.797464
-0.826439,-0.817395,-0.768047,-0.793764,-0.756113,-0.776668,-0.775509,-0.780897,-1.000000,-0.789823,-0.635196,-0.656870,-0.669321,-0.645899,-0.766118,-0.792937,-0.813938,-0.799126,-0.735589,-0.755700,-0.716913,-0.786748,-0.703442,-0.750772,-0.771966,-0.639100,-0.597851,-0.646555,-0.709349,-0.657424,-0.767494,-0.794911
-0.829102,-0.819618,-0.755065,-0.790979,-0.735889,-0.788272,-0.788208,-0.772393,-1.000000,-0.789667,-0.621538,-0.661841,-0.711380,-0.668625,-0.769623,-0.790296,-0.812279,-0.804597,-0.736663,-0.759352,-0.727626,-0.781129,-0.723546,-0.748205,-0.763195,-0.633283,-0.575573,-0.634246,-0.748263,-0.704428,-0.775077,-0.794923
-0.796621,-0.794040,-0.740362,-0.767262,-0.729907,-0.769219,-0.775163,-0.769370,-1.000000,-0.776455,-0.639484,-0.657316,-0.699581,-0.628631,-0.717161,-0.746302,-0.779601,-0.772181,-0.725305,-0.715648,-0.707758,-0.758507,-0.709348,-0.732219,-0.758937,-0.632261,-0.600507,-0.656253,-0.740595,-0.652259,-0.727549,-0.753013
-0.796542,-0.783418,-0.719212,-0.759209,-0.716836,-0.747045,-0.751074,-0.746696,-1.000000,-0.769581,-0.627011,-0.663289,-0.717058,-0.666829,-0.742694,-0.757525,-0.770472,-0.755580,-0.705545,-0.715915,-0.691511,-0.749125,-0.688629,-0.700826,-0.709332,-0.585530,-0.563646,-0.625879,-0.738011,-0.692401,-0.750653,-0.763273
