0,1,2,3,4,5,6,7,8,9,10,11,12,13,14,15,16,17,18,19,20,21,22,23,24,25,26,27,28,29,30,31
-0.822204,-0.806254,-0.750737,-0.728614,-0.718340,-0.754869,-0.753577,-0.751027,-1.000000,-0.749737,-0.621980,-0.677189,-0.685299,-0.639394,-0.724511,-0.748871,-0.797237,-0.791344,-0.728293,-0.710721,-0.662350,-0.738022,-0.692039,-0.714830,-0.736376,-0.587246,-0.574686,-0.632647,-0.734676,-0.656614,-0.730098,-0.759911
-0.825660,-0.825557,-0.775516,-0.776791,-0.750758,-0.789048,-0.795775,-0.780511,-1.000000,-0.773959,-0.671551,-0.693413,-0.730384,-0.715843,-0.777223,-0.789227,-0.807164,-0.794111,-0.746300,-0.745558,-0.686065,-0.769447,-0.739649,-0.756460,-0.750941,-0.651468,-0.650406,-0.687983,-0.752718,-0.734735,-0.779017,-0.792987
-0.813437,-0.809566,-0.758163,-0.753098,-0.732249,-0.781596,-0.794033,-0.794652,-1.000000,-0.782782,-0.666441,-0.689612,-0.731653,-0.683619,-0.752258,-0.768892,-0.798202,-0.792117,-0.751758,-0.731014,-0.679338,-0.762557,-0.729392,-0.761490,-0.755642,-0.629363,-0.646425,-0.683191,-0.751647,-0.718853,-0.759749,-0.777541
-0.828047,-0.820140,-0.764203,-0.769954,-0.740787,-0.768517,-0.752373,-0.769017,-1.000000,-0.776699,-0.668435,-0.694138,-0.711905,-0.698379,-0.766860,-0.782984,-0.801279,-0.786706,-0.753869,-0.742238,-0.677308,-0.746431,-0.681770,-0.703307,-0.739539,-0.604818,-0.630337,-0.665715,-0.751055,-0.723525,-0.774328,-0.791318
-0.832627,-0.823144,-0.752968,-0.764126,-0.731193,-0.778376,-0.791273,-0.800624,-1.000000,-0.790729,-0.682704,-0.705169,-0.735011,-0.692607,-0.758639,-0.776629,-0.803496,-0.792699,-0.739009,-0.732270,-0.661598,-0.736936,-0.715371,-0.746888,-0.755443,-0.655953,-0.638807,-0.672194,-0.720477,-0.715690,-0.770388,-0.791039
-0.809510,-0.806087,-0.756548,-0.768767,-0.740868,-0.783320,-0.793880,-0.795171,-1.000000,-0.792959,-0.675820,-0.703278,-0.725052,-0.682688,-0.753373,-0.771428,-0.794182,-0.779180,-0.742773,-0.741177,-0.678669,-0.758879,-0.728939,-0.759636,-0.763857,-0.652871,-0.618470,-0.656927,-0.769417,-0.696197,-0.748206,-0.766029
-0.826838,-0.821041,-0.765523,-0.771178,-0.744016,-0.787542,-0.801387,-0.798325,-1.000000,-0.790243,-0.671597,-0.693421,-0.710164,-0.686068,-0.764321,-0.782462,-0.805897,-0.791934,-0.756354,-0.736041,-0.682715,-0.768389,-0.736182,-0.761577,-0.765911,-0.654839,-0.642112,-0.676009,-0.762448,-0.713147,-0.766346,-0.784894
-0.826669,-0.820848,-0.767488,-0.769925,-0.743389,-0.789674,-0.796619,-0.783658,-1.000000,-0.781152,-0.670341,-0.693479,-0.708930,-0.680620,-0.760150,-0.780151,-0.796774,-0.772645,-0.756131,-0.737974,-0.681111,-0.771853,-0.734675,-0.751037,-0.755620,-0.654910,-0.643881,-0.674466,-0.735220,-0.714620,-0.763611,-0.785090
-0.820041,-0.813812,-0.756783,-0.765342,-0.740223,-0.783580,-0.792122,-0.802043,-1.000000,-0.792821,-0.669104,-0.706055,-0.730411,-0.679196,-0.755795,-0.775657,-0.795267,-0.783431,-0.752745,-0.743892,-0.686228,-0.765527,-0.729586,-0.761914,-0.769309,-0.630103,-0.639221,-0.683961,-0.756873,-0.704053,-0.760383,-0.780671
-0.811902,-0.809202,-0.755310,-0.762302,-0.717817,-0.770011,-0.782312,-0.786763,-1.000000,-0.785482,-0.662653,-0.696303,-0.729219,-0.664831,-0.743899,-0.766369,-0.784818,-0.773741,-0.751286,-0.741292,-0.659976,-0.758767,-0.719398,-0.752518,-0.763357,-0.632523,-0.626045,-0.651108,-0.766331,-0.676555,-0.750870,-0.772411
-0.822272,-0.814417,-0.753606,-0.759981,-0.723378,-0.787381,-0.793894,-0.786118,-1.000000,-0.779109,-0.658405,-0.694320,-0.729478,-0.678269,-0.760452,-0.778600,-0.800807,-0.789875,-0.749132,-0.732254,-0.641653,-0.770434,-0.742145,-0.754050,-0.760433,-0.602351,-0.615588,-0.660077,-0.768499,-0.702549,-0.764047,-0.783249
-0.819172,-0.804257,-0.742907,-0.763832,-0.736506,-0.779236,-0.782240,-0.781702,-1.000000,-0.777915,-0.657880,-0.691335,-0.726307,-0.681207,-0.761660,-0.780483,-0.802344,-0.785789,-0.738126,-0.739554,-0.684406,-0.762427,-0.729171,-0.758512,-0.757917,-0.624918,-0.634730,-0.667793,-0.751710,-0.701216,-0.763088,-0.783265
-0.822379,-0.815809,-0.765826,-0.773419,-0.751626,-0.792600,-0.793780,-0.790379,-1.000000,-0.774397,-0.664559,-0.686114,-0.726163,-0.681224,-0.763169,-0.781857,-0.802806,-0.784675,-0.763288,-0.740444,-0.703354,-0.772622,-0.738333,-0.756944,-0.764029,-0.635133,-0.634404,-0.666084,-0.753727,-0.711621,-0.766638,-0.784312
-0.820958,-0.812721,-0.762330,-0.765709,-0.736849,-0.787529,-0.788380,-0.784578,-1.000000,-0.764922,-0.658692,-0.679452,-0.700861,-0.673750,-0.761716,-0.780735,-0.805950,-0.793532,-0.762771,-0.742989,-0.696368,-0.769183,-0.732216,-0.753343,-0.751212,-0.626865,-0.632037,-0.664030,-0.739581,-0.709179,-0.765494,-0.783244
-0.820710,-0.812583,-0.758645,-0.765010,-0.731598,-0.786266,-0.781669,-0.786120,-1.000000,-0.765344,-0.659581,-0.682471,-0.714467,-0.684725,-0.760436,-0.779014,-0.805670,-0.792656,-0.759230,-0.741458,-0.692944,-0.768828,-0.721336,-0.749699,-0.757639,-0.633238,-0.632625,-0.666651,-0.760855,-0.707876,-0.764257,-0.784805
-0.818673,-0.806195,-0.748973,-0.758959,-0.726583,-0.779731,-0.734125,-0.754168,-1.000000,-0.764162,-0.647511,-0.642269,-0.686522,-0.680962,-0.760762,-0.778835,-0.793711,-0.775631,-0.752059,-0.731105,-0.674764,-0.754279,-0.659513,-0.702049,-0.740611,-0.618984,-0.627284,-0.646117,-0.707592,-0.712264,-0.762733,-0.782640
-0.806761,-0.794883,-0.739020,-0.751403,-0.719812,-0.767002,-0.764077,-0.774339,-1.000000,-0.763267,-0.649704,-0.669073,-0.674103,-0.637573,-0.736108,-0.758704,-0.780834,-0.762744,-0.729920,-0.726421,-0.680083,-0.749870,-0.697352,-0.724494,-0.737803,-0.607330,-0.616109,-0.661939,-0.741502,-0.691258,-0.742228,-0.764954
-0.806085,-0.795731,-0.739339,-0.753338,-0.724671,-0.770611,-0.768669,-0.775969,-1.000000,-0.764115,-0.663023,-0.680952,-0.718472,-0.655014,-0.727983,-0.752263,-0.775227,-0.754536,-0.731973,-0.728978,-0.684839,-0.752991,-0.708384,-0.733037,-0.745794,-0.619954,-0.621680,-0.666250,-0.761255,-0.674380,-0.728661,-0.757229
-0.803770,-0.792600,-0.741407,-0.748629,-0.715555,-0.761632,-0.764020,-0.765324,-1.000000,-0.762489,-0.670305,-0.695242,-0.710055,-0.666399,-0.742180,-0.762659,-0.780292,-0.766000,-0.738565,-0.721415,-0.678473,-0.742684,-0.707831,-0.727960,-0.746946,-0.623000,-0.632575,-0.657483,-0.725653,-0.686676,-0.743735,-0.765990
-0.817852,-0.803945,-0.750770,-0.755146,-0.722191,-0.771182,-0.772422,-0.780003,-1.000000,-0.780434,-0.696536,-0.703773,-0.753695,-0.682241,-0.753765,-0.775466,-0.800140,-0.784173,-0.754050,-0.724249,-0.676992,-0.749692,-0.717060,-0.737570,-0.752928,-0.640567,-0.645998,-0.667444,-0.762601,-0.696716,-0.753180,-0.777799
-0.820796,-0.812982,-0.763760,-0.763933,-0.726989,-0.775857,-0.770567,-0.768348,-1.000000,-0.781392,-0.710495,-0.738870,-0.754582,-0.681972,-0.758728,-0.780183,-0.801674,-0.783490,-0.753387,-0.730887,-0.673934,-0.756418,-0.717644,-0.730079,-0.748060,-0.636170,-0.649045,-0.681485,-0.759198,-0.700612,-0.758978,-0.782802
-0.821462,-0.814879,-0.764424,-0.770417,-0.715542,-0.774997,-0.768014,-0.772244,-1.000000,-0.776415,-0.702718,-0.722523,-0.747992,-0.686241,-0.759840,-0.781939,-0.806316,-0.785811,-0.760325,-0.723980,-0.652001,-0.756579,-0.711461,-0.730345,-0.737547,-0.628952,-0.653138,-0.688816,-0.763834,-0.700709,-0.758110,-0.782941
-0.823604,-0.814373,-0.770016,-0.767986,-0.726743,-0.780797,-0.781958,-0.784754,-1.000000,-0.781822,-0.711150,-0.731766,-0.753025,-0.685773,-0.759964,-0.781889,-0.802970,-0.780046,-0.764274,-0.725684,-0.684992,-0.754997,-0.728470,-0.744004,-0.747742,-0.644352,-0.655484,-0.686474,-0.761392,-0.703260,-0.761582,-0.787072
-0.827673,-0.816954,-0.779633,-0.778090,-0.733342,-0.786792,-0.783213,-0.783971,-1.000000,-0.774439,-0.694280,-0.698836,-0.731583,-0.677065,-0.760237,-0.785038,-0.806247,-0.787546,-0.774580,-0.743280,-0.676945,-0.768341,-0.732023,-0.749787,-0.754819,-0.642708,-0.655868,-0.668896,-0.746981,-0.703197,-0.757035,-0.785677
-0.822621,-0.815901,-0.777122,-0.778023,-0.738642,-0.783703,-0.768839,-0.773326,-1.000000,-0.754238,-0.697092,-0.701377,-0.707819,-0.684406,-0.761673,-0.785431,-0.805452,-0.788266,-0.775394,-0.748328,-0.683006,-0.761172,-0.704820,-0.726600,-0.745312,-0.655964,-0.669701,-0.691455,-0.716321,-0.694907,-0.757749,-0.782067
-0.821576,-0.809996,-0.777407,-0.769626,-0.741363,-0.766863,-0.785608,-0.782933,-1.000000,-0.765472,-0.714531,-0.719346,-0.752747,-0.697025,-0.765032,-0.786610,-0.807397,-0.789487,-0.774533,-0.723127,-0.688111,-0.726722,-0.727591,-0.749974,-0.741856,-0.654565,-0.669491,-0.667215,-0.725337,-0.702330,-0.764896,-0.787799
-0.819571,-0.814091,-0.780632,-0.788701,-0.744637,-0.785736,-0.772359,-0.784059,-1.000000,-0.794097,-0.720414,-0.727599,-0.755149,-0.693495,-0.766543,-0.788215,-0.809005,-0.795813,-0.776747,-0.759414,-0.721224,-0.779511,-0.720897,-0.735927,-0.753379,-0.656863,-0.668833,-0.689851,-0.750362,-0.703581,-0.764859,-0.785993
-0.826402,-0.814141,-0.770328,-0.773301,-0.734591,-0.783193,-0.777734,-0.774726,-1.000000,-0.785049,-0.709625,-0.725505,-0.740004,-0.698065,-0.771933,-0.793646,-0.812223,-0.797049,-0.776730,-0.753427,-0.681180,-0.775181,-0.724964,-0.736600,-0.741273,-0.634647,-0.673592,-0.692931,-0.734881,-0.711188,-0.771167,-0.794526
-0.815204,-0.807766,-0.778819,-0.791398,-0.739741,-0.780156,-0.769282,-0.780218,-1.000000,-0.783167,-0.668537,-0.716990,-0.715651,-0.631273,-0.736566,-0.769118,-0.799643,-0.786022,-0.775211,-0.767071,-0.720491,-0.773399,-0.711013,-0.728805,-0.739592,-0.555522,-0.606603,-0.657673,-0.742426,-0.650160,-0.743976,-0.776797
-0.813996,-0.791963,-0.771742,-0.792241,-0.746126,-0.785872,-0.779675,-0.790666,-1.000000,-0.796956,-0.709787,-0.745774,-0.754582,-0.700860,-0.768921,-0.787223,-0.802574,-0.786959,-0.779660,-0.771048,-0.724046,-0.780589,-0.726961,-0.738957,-0.759964,-0.635852,-0.667470,-0.689255,-0.780469,-0.714769,-0.774218,-0.791641
-0.822925,-0.814625,-0.779162,-0.784972,-0.745954,-0.788768,-0.771485,-0.785063,-1.000000,-0.795033,-0.712197,-0.741112,-0.756011,-0.691408,-0.763130,-0.785706,-0.802459,-0.789612,-0.776088,-0.764530,-0.726742,-0.783141,-0.713645,-0.737333,-0.752515,-0.637870,-0.673723,-0.692669,-0.779952,-0.703398,-0.765358,-0.787296
-0.826845,-0.816127,-0.781579,-0.780099,-0.739291,-0.778657,-0.777631,-0.785441,-1.000000,-0.792154,-0.717383,-0.745300,-0.758811,-0.700318,-0.774622,-0.792928,-0.809014,-0.794307,-0.778877,-0.751665,-0.698840,-0.770675,-0.729677,-0.741595,-0.760226,-0.645457,-0.672777,-0.692986,-0.773466,-0.712372,-0.776046,-0.795791
-0.827986,-0.814341,-0.780735,-0.765091,-0.745680,-0.788878,-0.786637,-0.795723,-1.000000,-0.792130,-0.720249,-0.739932,-0.765380,-0.703798,-0.770798,-0.790555,-0.808009,-0.793146,-0.784547,-0.750525,-0.704556,-0.777537,-0.741347,-0.759852,-0.766979,-0.654637,-0.657693,-0.681774,-0.787689,-0.719584,-0.768790,-0.791174
-0.828818,-0.818542,-0.790454,-0.790893,-0.751166,-0.785365,-0.785836,-0.794107,-1.000000,-0.792302,-0.710765,-0.745739,-0.742064,-0.719049,-0.781736,-0.799310,-0.809718,-0.790660,-0.785336,-0.768324,-0.715523,-0.776906,-0.736783,-0.757415,-0.768158,-0.644716,-0.662120,-0.694266,-0.760000,-0.734358,-0.777208,-0.793671
-0.832279,-0.812457,-0.782058,-0.780367,-0.744397,-0.788412,-0.790640,-0.796495,-1.000000,-0.793403,-0.718530,-0.742122,-0.741139,-0.710783,-0.777410,-0.794490,-0.807693,-0.793592,-0.783573,-0.762406,-0.712532,-0.783035,-0.741028,-0.758055,-0.766361,-0.647113,-0.678349,-0.704267,-0.747996,-0.735739,-0.780475,-0.800424
-0.842352,-0.828709,-0.772950,-0.783929,-0.751011,-0.780772,-0.791062,-0.795356,-1.000000,-0.770677,-0.714869,-0.740514,-0.735765,-0.717575,-0.784791,-0.800961,-0.819544,-0.806091,-0.778065,-0.764852,-0.704118,-0.782240,-0.739775,-0.756714,-0.755500,-0.646140,-0.679353,-0.696963,-0.754913,-0.731466,-0.781958,-0.801253
-0.838779,-0.829933,-0.788954,-0.788390,-0.745595,-0.782478,-0.783834,-0.796707,-1.000000,-0.756461,-0.674094,-0.732567,-0.733325,-0.718535,-0.782955,-0.801077,-0.817239,-0.801186,-0.789010,-0.772014,-0.711214,-0.776690,-0.730029,-0.753309,-0.766309,-0.596711,-0.650952,-0.693410,-0.707105,-0.722228,-0.783228,-0.804029
-0.840657,-0.827733,-0.786317,-0.772507,-0.741469,-0.774429,-0.780100,-0.799359,-1.000000,-0.768499,-0.694287,-0.700499,-0.732469,-0.722652,-0.787261,-0.804422,-0.823274,-0.809060,-0.785302,-0.757516,-0.690904,-0.778101,-0.735635,-0.758203,-0.774199,-0.649413,-0.672423,-0.686386,-0.755071,-0.735757,-0.783842,-0.805051
-0.841365,-0.832729,-0.786746,-0.781440,-0.734969,-0.785139,-0.792890,-0.805400,-1.000000,-0.799044,-0.716690,-0.741096,-0.748872,-0.714576,-0.781088,-0.796021,-0.819787,-0.807131,-0.783958,-0.754795,-0.673890,-0.775531,-0.735011,-0.759227,-0.773713,-0.651357,-0.670362,-0.690361,-0.750755,-0.737383,-0.782862,-0.797984
-0.839670,-0.820540,-0.777165,-0.780694,-0.732667,-0.778390,-0.785667,-0.807194,-1.000000,-0.799722,-0.707400,-0.744977,-0.762796,-0.711737,-0.766509,-0.785544,-0.808794,-0.797607,-0.778316,-0.765485,-0.705222,-0.768128,-0.731359,-0.760602,-0.776124,-0.646771,-0.651823,-0.683086,-0.781797,-0.720517,-0.765485,-0.790140
-0.837905,-0.823527,-0.780956,-0.768366,-0.738150,-0.779739,-0.780075,-0.805633,-1.000000,-0.799437,-0.711791,-0.721656,-0.757426,-0.713420,-0.773657,-0.792055,-0.813516,-0.801166,-0.781442,-0.757898,-0.695582,-0.772745,-0.726929,-0.757523,-0.774267,-0.656784,-0.669623,-0.690026,-0.759012,-0.717234,-0.769219,-0.794195
-0.829944,-0.811702,-0.763395,-0.775987,-0.739591,-0.768218,-0.752815,-0.780409,-1.000000,-0.783213,-0.695734,-0.717437,-0.729375,-0.697224,-0.765878,-0.785204,-0.807334,-0.800429,-0.774947,-0.749186,-0.680614,-0.757532,-0.703491,-0.733753,-0.759293,-0.642929,-0.660062,-0.682351,-0.747089,-0.708833,-0.763872,-0.785207
-0.820272,-0.814557,-0.769559,-0.763232,-0.740106,-0.768033,-0.773064,-0.784178,-1.000000,-0.767051,-0.692490,-0.710325,-0.728558,-0.691757,-0.754115,-0.774546,-0.795209,-0.781893,-0.772241,-0.737436,-0.679336,-0.756706,-0.718346,-0.736914,-0.764387,-0.642094,-0.661142,-0.684851,-0.752097,-0.714383,-0.753486,-0.776472
-0.833157,-0.813695,-0.777974,-0.770532,-0.724120,-0.735301,-0.743586,-0.779454,-1.000000,-0.794148,-0.703620,-0.719059,-0.753844,-0.695054,-0.759674,-0.783838,-0.799108,-0.781514,-0.775380,-0.747661,-0.635297,-0.739012,-0.675320,-0.724501,-0.768160,-0.629267,-0.662285,-0.698177,-0.766673,-0.697649,-0.759190,-0.785933
-0.848592,-0.839144,-0.766913,-0.779458,-0.754592,-0.791096,-0.798482,-0.811248,-1.000000,-0.800933,-0.707912,-0.718703,-0.725700,-0.707066,-0.782439,-0.804108,-0.822434,-0.811121,-0.729049,-0.757450,-0.682414,-0.778723,-0.748299,-0.773789,-0.789295,-0.669690,-0.682495,-0.701349,-0.747009,-0.721744,-0.779876,-0.802380
-0.846271,-0.831620,-0.791449,-0.779658,-0.735454,-0.773161,-0.795140,-0.810043,-1.000000,-0.816357,-0.710034,-0.715848,-0.725511,-0.730916,-0.796825,-0.806941,-0.816390,-0.795740,-0.777468,-0.742878,-0.675825,-0.757524,-0.748378,-0.773863,-0.787628,-0.665579,-0.679351,-0.691629,-0.764500,-0.735175,-0.788011,-0.806132
-0.824878,-0.815389,-0.772878,-0.737926,-0.713852,-0.757695,-0.763254,-0.784082,-1.000000,-0.800573,-0.690518,-0.712635,-0.725758,-0.699748,-0.781398,-0.796822,-0.800796,-0.791862,-0.765679,-0.712884,-0.633114,-0.756158,-0.716607,-0.746094,-0.759404,-0.648588,-0.647858,-0.654096,-0.750489,-0.719879,-0.776599,-0.797524
-0.848199,-0.841262,-0.792079,-0.777854,-0.731043,-0.782917,-0.786582,-0.803491,-1.000000,-0.784387,-0.656927,-0.682110,-0.699251,-0.718421,-0.794925,-0.809276,-0.824100,-0.810489,-0.778107,-0.747335,-0.641150,-0.773252,-0.734241,-0.762019,-0.772972,-0.649688,-0.607438,-0.612130,-0.679763,-0.707409,-0.787058,-0.804874
-0.840398,-0.835336,-0.794174,-0.789554,-0.748367,-0.787495,-0.780335,-0.795087,-1.000000,-0.809304,-0.699333,-0.724268,-0.743459,-0.729119,-0.788814,-0.801419,-0.816072,-0.804053,-0.784510,-0.765231,-0.681002,-0.774069,-0.727914,-0.743269,-0.773710,-0.670538,-0.663699,-0.674784,-0.756251,-0.730293,-0.778974,-0.795264
-0.843831,-0.829577,-0.791543,-0.780337,-0.736113,-0.783478,-0.790795,-0.807691,-1.000000,-0.805247,-0.695601,-0.714160,-0.760736,-0.728990,-0.792744,-0.804252,-0.810219,-0.791483,-0.780856,-0.741400,-0.666224,-0.775442,-0.739281,-0.762638,-0.769326,-0.660720,-0.654025,-0.668003,-0.764675,-0.732231,-0.786377,-0.802108
-0.833883,-0.828103,-0.787015,-0.776585,-0.729736,-0.776609,-0.792880,-0.810570,-1.000000,-0.812103,-0.700071,-0.728307,-0.751078,-0.722169,-0.787315,-0.799527,-0.803420,-0.785376,-0.767749,-0.727003,-0.669261,-0.758572,-0.738366,-0.763800,-0.782311,-0.667512,-0.665242,-0.671228,-0.755030,-0.732618,-0.782862,-0.796161
-0.814361,-0.807728,-0.758224,-0.761844,-0.714697,-0.776892,-0.782144,-0.801245,-1.000000,-0.792372,-0.668220,-0.688037,-0.716033,-0.682836,-0.758636,-0.774925,-0.789720,-0.773192,-0.749295,-0.710064,-0.636794,-0.759067,-0.721434,-0.746145,-0.769947,-0.648324,-0.641984,-0.657570,-0.726199,-0.706216,-0.756043,-0.773461
-0.827885,-0.818371,-0.769494,-0.766969,-0.726068,-0.773637,-0.770209,-0.791032,-1.000000,-0.797303,-0.669068,-0.707436,-0.738744,-0.707122,-0.768568,-0.781430,-0.796988,-0.781675,-0.746085,-0.718574,-0.629217,-0.760883,-0.717049,-0.747009,-0.769325,-0.636349,-0.627389,-0.653523,-0.752318,-0.711050,-0.763872,-0.780313
-0.829813,-0.818245,-0.772553,-0.758981,-0.727704,-0.778583,-0.788027,-0.791106,-1.000000,-0.778686,-0.669233,-0.695179,-0.725697,-0.700986,-0.768770,-0.782523,-0.804872,-0.788742,-0.748530,-0.707814,-0.646997,-0.766302,-0.736638,-0.755977,-0.768337,-0.634566,-0.630505,-0.658772,-0.734976,-0.716305,-0.764587,-0.779176
-0.823801,-0.817032,-0.777078,-0.768338,-0.729151,-0.773440,-0.779575,-0.782576,-1.000000,-0.797681,-0.669927,-0.690249,-0.711557,-0.688354,-0.766320,-0.782810,-0.797094,-0.777318,-0.754198,-0.721166,-0.649254,-0.765966,-0.733262,-0.733900,-0.742443,-0.612894,-0.616902,-0.651155,-0.737368,-0.696275,-0.767262,-0.784072
-0.822579,-0.808938,-0.773142,-0.759210,-0.719438,-0.767917,-0.772078,-0.778446,-1.000000,-0.760296,-0.593267,-0.628414,-0.672208,-0.673223,-0.768005,-0.781499,-0.801757,-0.779559,-0.745664,-0.708620,-0.645487,-0.757582,-0.741578,-0.754177,-0.752996,-0.571005,-0.550493,-0.549651,-0.660698,-0.683743,-0.759628,-0.776388
-0.827963,-0.816880,-0.778669,-0.769565,-0.735774,-0.779842,-0.793819,-0.802773,-1.000000,-0.786226,-0.647180,-0.697870,-0.736056,-0.695753,-0.758394,-0.776014,-0.795035,-0.778564,-0.757762,-0.722319,-0.654314,-0.765758,-0.737925,-0.762087,-0.781805,-0.624623,-0.606176,-0.634948,-0.748710,-0.695964,-0.758706,-0.778990
-0.820900,-0.802835,-0.770123,-0.742121,-0.714546,-0.766780,-0.784983,-0.795653,-1.000000,-0.779752,-0.635847,-0.653779,-0.694819,-0.658658,-0.749963,-0.770651,-0.795285,-0.780758,-0.746853,-0.686814,-0.637910,-0.757322,-0.732690,-0.759995,-0.773647,-0.638225,-0.609839,-0.633620,-0.736002,-0.704444,-0.754924,-0.772570
-0.819130,-0.819252,-0.782016,-0.760591,-0.699364,-0.760780,-0.774903,-0.795590,-1.000000,-0.787517,-0.643597,-0.692250,-0.719428,-0.685673,-0.752463,-0.770782,-0.793150,-0.779268,-0.734742,-0.694819,-0.631945,-0.753141,-0.717158,-0.756997,-0.770096,-0.641295,-0.606980,-0.626862,-0.723582,-0.698626,-0.750712,-0.768506
-0.831390,-0.818131,-0.775927,-0.771637,-0.722419,-0.763352,-0.776844,-0.800272,-1.000000,-0.776561,-0.602523,-0.664619,-0.710766,-0.693569,-0.760831,-0.779303,-0.806662,-0.791741,-0.751607,-0.713248,-0.651627,-0.766164,-0.722514,-0.753257,-0.756765,-0.582570,-0.573551,-0.617917,-0.732432,-0.696904,-0.758062,-0.778527
-0.832991,-0.825532,-0.782793,-0.777416,-0.720027,-0.777289,-0.784391,-0.801433,-1.000000,-0.789242,-0.638996,-0.679051,-0.724085,-0.686740,-0.754477,-0.777009,-0.805009,-0.790026,-0.753396,-0.719121,-0.652325,-0.763222,-0.739425,-0.765354,-0.776830,-0.624442,-0.607298,-0.634420,-0.735649,-0.682104,-0.755918,-0.778613
-0.837328,-0.828637,-0.786792,-0.777809,-0.725203,-0.782252,-0.792123,-0.803032,-1.000000,-0.791691,-0.642175,-0.675836,-0.732476,-0.699850,-0.770631,-0.788666,-0.802981,-0.775268,-0.754165,-0.716576,-0.640015,-0.770221,-0.749764,-0.770101,-0.781753,-0.637761,-0.623847,-0.646876,-0.738279,-0.689674,-0.770462,-0.791494
-0.819121,-0.812493,-0.770623,-0.768078,-0.701546,-0.758802,-0.783905,-0.794624,-1.000000,-0.776165,-0.638684,-0.679365,-0.697994,-0.658305,-0.743436,-0.766343,-0.791764,-0.774592,-0.742267,-0.710047,-0.608996,-0.752954,-0.738652,-0.757595,-0.768682,-0.620073,-0.611645,-0.636569,-0.684255,-0.663468,-0.745089,-0.767483
-0.827368,-0.817977,-0.758396,-0.760160,-0.694417,-0.767369,-0.773314,-0.773885,-1.000000,-0.761658,-0.619964,-0.665630,-0.717101,-0.682215,-0.751640,-0.769313,-0.796221,-0.782771,-0.736860,-0.699896,-0.611488,-0.760291,-0.735404,-0.748428,-0.755150,-0.578804,-0.586642,-0.621052,-0.717877,-0.683447,-0.746446,-0.768129
-0.823199,-0.813687,-0.763063,-0.765922,-0.686122,-0.769220,-0.781533,-0.785182,-1.000000,-0.748887,-0.591760,-0.630634,-0.691835,-0.676268,-0.747809,-0.767797,-0.785650,-0.751902,-0.734306,-0.710198,-0.620263,-0.762749,-0.745095,-0.762783,-0.768537,-0.589518,-0.576888,-0.604544,-0.693308,-0.693436,-0.752696,-0.773919
-0.829364,-0.819134,-0.770760,-0.754766,-0.694836,-0.770214,-0.774309,-0.780383,-1.000000,-0.752524,-0.606992,-0.636748,-0.692360,-0.670516,-0.756324,-0.777182,-0.804134,-0.782986,-0.740703,-0.675787,-0.612607,-0.761600,-0.744658,-0.761602,-0.751935,-0.607996,-0.586613,-0.607787,-0.682353,-0.686735,-0.757454,-0.779434
-0.827418,-0.810316,-0.771385,-0.753305,-0.680650,-0.765302,-0.771739,-0.780282,-1.000000,-0.765549,-0.640849,-0.678707,-0.699405,-0.670496,-0.750903,-0.772116,-0.800216,-0.769854,-0.713800,-0.685331,-0.606595,-0.760813,-0.735368,-0.760530,-0.766795,-0.608156,-0.605447,-0.630319,-0.700892,-0.667257,-0.749476,-0.774360
-0.821776,-0.807036,-0.760362,-0.745526,-0.676106,-0.751985,-0.761901,-0.783535,-1.000000,-0.776825,-0.629815,-0.679981,-0.721987,-0.672881,-0.739945,-0.760676,-0.790103,-0.771568,-0.728272,-0.686204,-0.594934,-0.742290,-0.715856,-0.761925,-0.775051,-0.607679,-0.603568,-0.636080,-0.733166,-0.667237,-0.738909,-0.766453
-0.836568,-0.822436,-0.775963,-0.751348,-0.691757,-0.775813,-0.781109,-0.776461,-1.000000,-0.787458,-0.648697,-0.693097,-0.738378,-0.686897,-0.758684,-0.778598,-0.804859,-0.782199,-0.742063,-0.688084,-0.610681,-0.761622,-0.740103,-0.760837,-0.768129,-0.621688,-0.621859,-0.647037,-0.753613,-0.700948,-0.764108,-0.785799
-0.840999,-0.825448,-0.773359,-0.756233,-0.692964,-0.772847,-0.771861,-0.777601,-1.000000,-0.782539,-0.650679,-0.706423,-0.739531,-0.687527,-0.761243,-0.782320,-0.811959,-0.784093,-0.740823,-0.683400,-0.614360,-0.765325,-0.733057,-0.764985,-0.774664,-0.616503,-0.613609,-0.640118,-0.746275,-0.687976,-0.763626,-0.788599
-0.835817,-0.822227,-0.770716,-0.750582,-0.675557,-0.765896,-0.781082,-0.784238,-1.000000,-0.767039,-0.649374,-0.703948,-0.737506,-0.693098,-0.768738,-0.787791,-0.807133,-0.777914,-0.737548,-0.696638,-0.618816,-0.751466,-0.727085,-0.768997,-0.774938,-0.617282,-0.618577,-0.643039,-0.743812,-0.697654,-0.773912,-0.793944
-0.821358,-0.803715,-0.760085,-0.729317,-0.640415,-0.762887,-0.776784,-0.777216,-1.000000,-0.753133,-0.582015,-0.666903,-0.724614,-0.692981,-0.764003,-0.777775,-0.794008,-0.770829,-0.737357,-0.684465,-0.606789,-0.753071,-0.733027,-0.761293,-0.772058,-0.547371,-0.566241,-0.612617,-0.725189,-0.693717,-0.769780,-0.785279
-0.834576,-0.809838,-0.760594,-0.751514,-0.682006,-0.776972,-0.773101,-0.776143,-1.000000,-0.778999,-0.644228,-0.699458,-0.730520,-0.691246,-0.765960,-0.785541,-0.811471,-0.782860,-0.726355,-0.696463,-0.622308,-0.763641,-0.732612,-0.755643,-0.766094,-0.605186,-0.615830,-0.640203,-0.736264,-0.699252,-0.775500,-0.795394
-0.821359,-0.788432,-0.760387,-0.749831,-0.690656,-0.767599,-0.772624,-0.770284,-1.000000,-0.761436,-0.640143,-0.685502,-0.682968,-0.673188,-0.762964,-0.779307,-0.797719,-0.772425,-0.729569,-0.679282,-0.602183,-0.755354,-0.722618,-0.747271,-0.759811,-0.603645,-0.612110,-0.639941,-0.720249,-0.701602,-0.771266,-0.786272
-0.834050,-0.811936,-0.768524,-0.760607,-0.690983,-0.767931,-0.768715,-0.767577,-1.000000,-0.778945,-0.653929,-0.694511,-0.719638,-0.686775,-0.762551,-0.783037,-0.808613,-0.781225,-0.713440,-0.708231,-0.605466,-0.745925,-0.722128,-0.737326,-0.752786,-0.600905,-0.624174,-0.666522,-0.730304,-0.696534,-0.769566,-0.790825
-0.808344,-0.798064,-0.757986,-0.752268,-0.698586,-0.773668,-0.763146,-0.771766,-1.000000,-0.719182,-0.577981,-0.609291,-0.652524,-0.655852,-0.758316,-0.780432,-0.801887,-0.780823,-0.720081,-0.689800,-0.582106,-0.759529,-0.731738,-0.763034,-0.750946,-0.573884,-0.585420,-0.629863,-0.662219,-0.673434,-0.760899,-0.779569
-0.803696,-0.798133,-0.768491,-0.753153,-0.708621,-0.787219,-0.776452,-0.764686,-1.000000,-0.763420,-0.635278,-0.673265,-0.729976,-0.668540,-0.755055,-0.770246,-0.788279,-0.747656,-0.715125,-0.705301,-0.624179,-0.764462,-0.737680,-0.754780,-0.757699,-0.584397,-0.601176,-0.648889,-0.738595,-0.692343,-0.758875,-0.766361
-0.828962,-0.805207,-0.755295,-0.762450,-0.695128,-0.774961,-0.775550,-0.767457,-1.000000,-0.765014,-0.635933,-0.683177,-0.724781,-0.674645,-0.759174,-0.780205,-0.804201,-0.775568,-0.728257,-0.707554,-0.624567,-0.765518,-0.729707,-0.760509,-0.778685,-0.581831,-0.599426,-0.639773,-0.718770,-0.683907,-0.761081,-0.779506
-0.803761,-0.794430,-0.743604,-0.735885,-0.691682,-0.762750,-0.779887,-0.779548,-1.000000,-0.751100,-0.607852,-0.667623,-0.688283,-0.637555,-0.727465,-0.750355,-0.774871,-0.742966,-0.685286,-0.653071,-0.621748,-0.727535,-0.729341,-0.762125,-0.771144,-0.570335,-0.586411,-0.624109,-0.706524,-0.665483,-0.732466,-0.752653
-0.836886,-0.815667,-0.774557,-0.769355,-0.715874,-0.794155,-0.790932,-0.782309,-1.000000,-0.784172,-0.625805,-0.650611,-0.727932,-0.683058,-0.776342,-0.800733,-0.811292,-0.765719,-0.737084,-0.731452,-0.648904,-0.768523,-0.741417,-0.771987,-0.789427,-0.588834,-0.614870,-0.645949,-0.753430,-0.694158,-0.782844,-0.805114
-0.840300,-0.816626,-0.769902,-0.770945,-0.708645,-0.790437,-0.787036,-0.788081,-1.000000,-0.796112,-0.668380,-0.719322,-0.759536,-0.691335,-0.775336,-0.800586,-0.818399,-0.781507,-0.743000,-0.737294,-0.638717,-0.771190,-0.747314,-0.766825,-0.788396,-0.603359,-0.636847,-0.672002,-0.757374,-0.698283,-0.780851,-0.803913
-0.839275,-0.815289,-0.773335,-0.768569,-0.708766,-0.790208,-0.790429,-0.791094,-1.000000,-0.795583,-0.657735,-0.718170,-0.755979,-0.693805,-0.769072,-0.793586,-0.806975,-0.766755,-0.733417,-0.731456,-0.632283,-0.765435,-0.747162,-0.770899,-0.793060,-0.599223,-0.618309,-0.661653,-0.758981,-0.696376,-0.773102,-0.797288
-0.834387,-0.810090,-0.766230,-0.769899,-0.710406,-0.786819,-0.786220,-0.788206,-1.000000,-0.793338,-0.645342,-0.701681,-0.749897,-0.677653,-0.763905,-0.786585,-0.806231,-0.774968,-0.742406,-0.727962,-0.624653,-0.764755,-0.742495,-0.766655,-0.790493,-0.577969,-0.609900,-0.660825,-0.745798,-0.679359,-0.768144,-0.793344
-0.835413,-0.812445,-0.769986,-0.773031,-0.707584,-0.784106,-0.783472,-0.776742,-1.000000,-0.780442,-0.683068,-0.712459,-0.738762,-0.668240,-0.771249,-0.794262,-0.809614,-0.773512,-0.733584,-0.729585,-0.626683,-0.762985,-0.732954,-0.763823,-0.777853,-0.628619,-0.652822,-0.683615,-0.746433,-0.694812,-0.777927,-0.798295
-0.829048,-0.803406,-0.756794,-0.763012,-0.692176,-0.776639,-0.775732,-0.780283,-1.000000,-0.798073,-0.668385,-0.692011,-0.728296,-0.677622,-0.759742,-0.785021,-0.805352,-0.770770,-0.737332,-0.728422,-0.620227,-0.758456,-0.723700,-0.768026,-0.792099,-0.622350,-0.631019,-0.643860,-0.718363,-0.694392,-0.769273,-0.792336
-0.831084,-0.810421,-0.766863,-0.763311,-0.697444,-0.776857,-0.781778,-0.776725,-1.000000,-0.785270,-0.671961,-0.689936,-0.687548,-0.657771,-0.762881,-0.787753,-0.806586,-0.771179,-0.722607,-0.697599,-0.619636,-0.755726,-0.730917,-0.763315,-0.790213,-0.631555,-0.650333,-0.677220,-0.713008,-0.687801,-0.773989,-0.794712
-0.823503,-0.807891,-0.764277,-0.774844,-0.702830,-0.778650,-0.783091,-0.782659,-1.000000,-0.799517,-0.687582,-0.704603,-0.724702,-0.652165,-0.763637,-0.789043,-0.802152,-0.761961,-0.732742,-0.738244,-0.622232,-0.754903,-0.732866,-0.769432,-0.794680,-0.629186,-0.651800,-0.680426,-0.732710,-0.667623,-0.774415,-0.795783
-0.819476,-0.785767,-0.682700,-0.672018,-0.616866,-0.716315,-0.705928,-0.717965,-1.000000,-0.773193,-0.692696,-0.721469,-0.743179,-0.708241,-0.764033,-0.779782,-0.766685,-0.710532,-0.641773,-0.616284,-0.562404,-0.708622,-0.642336,-0.669963,-0.718108,-0.607884,-0.631893,-0.658123,-0.757995,-0.722780,-0.775040,-0.792708
-0.825627,-0.790892,-0.719923,-0.710186,-0.645138,-0.735690,-0.722677,-0.724657,-1.000000,-0.774960,-0.690854,-0.728607,-0.747696,-0.700515,-0.763729,-0.784043,-0.777413,-0.721761,-0.670804,-0.637113,-0.576413,-0.725340,-0.669341,-0.687412,-0.720810,-0.600237,-0.638548,-0.668708,-0.763096,-0.718252,-0.772314,-0.793323
-0.826538,-0.780717,-0.716606,-0.691295,-0.632997,-0.735167,-0.727206,-0.730554,-1.000000,-0.769233,-0.681084,-0.718838,-0.742959,-0.718284,-0.774218,-0.790765,-0.785711,-0.722876,-0.661713,-0.626228,-0.566383,-0.724777,-0.675641,-0.686553,-0.714968,-0.601400,-0.623242,-0.669149,-0.778492,-0.752960,-0.785743,-0.801273
-0.803299,-0.755512,-0.688891,-0.650750,-0.622556,-0.717509,-0.717991,-0.723118,-1.000000,-0.694085,-0.605565,-0.640067,-0.678974,-0.664319,-0.735513,-0.756186,-0.773881,-0.718576,-0.636206,-0.586189,-0.560600,-0.706539,-0.665579,-0.683580,-0.715801,-0.573386,-0.554033,-0.610945,-0.703192,-0.710960,-0.744957,-0.773688
-0.829679,-0.794361,-0.725229,-0.686320,-0.625980,-0.730901,-0.709891,-0.734964,-1.000000,-0.763827,-0.667531,-0.692293,-0.724164,-0.711619,-0.772378,-0.790817,-0.791677,-0.731117,-0.667388,-0.626796,-0.528818,-0.707995,-0.659574,-0.695044,-0.727200,-0.595782,-0.618550,-0.667111,-0.739617,-0.728717,-0.783176,-0.803354
-0.829295,-0.795463,-0.718559,-0.694660,-0.583970,-0.719751,-0.735454,-0.742978,-1.000000,-0.761766,-0.679703,-0.703339,-0.722920,-0.694792,-0.758299,-0.781668,-0.783155,-0.723842,-0.665624,-0.611212,-0.570578,-0.680548,-0.682553,-0.699610,-0.723796,-0.605785,-0.625808,-0.662663,-0.754249,-0.755525,-0.773116,-0.793293
-0.820442,-0.770153,-0.725203,-0.700501,-0.625257,-0.743737,-0.730895,-0.741095,-1.000000,-0.752071,-0.664016,-0.672991,-0.705702,-0.697462,-0.774686,-0.792003,-0.787377,-0.724748,-0.663521,-0.629847,-0.572502,-0.720148,-0.683815,-0.700147,-0.719701,-0.608267,-0.624087,-0.642068,-0.742456,-0.758512,-0.787021,-0.802838
-0.819577,-0.790038,-0.725694,-0.700807,-0.641752,-0.743699,-0.733147,-0.741417,-1.000000,-0.755057,-0.666905,-0.677317,-0.723184,-0.695903,-0.770114,-0.789427,-0.782828,-0.718853,-0.664303,-0.632193,-0.569589,-0.719183,-0.681498,-0.696909,-0.721470,-0.613143,-0.628987,-0.656870,-0.737952,-0.745458,-0.777444,-0.796329
-0.818672,-0.793448,-0.730462,-0.699153,-0.622816,-0.732889,-0.704046,-0.728897,-1.000000,-0.756062,-0.647082,-0.671001,-0.709048,-0.700011,-0.768842,-0.788814,-0.784552,-0.722097,-0.668889,-0.631305,-0.566018,-0.719838,-0.653370,-0.691649,-0.716247,-0.561888,-0.591355,-0.624512,-0.726401,-0.739476,-0.780150,-0.798524
-0.812629,-0.786674,-0.725583,-0.689524,-0.632626,-0.733671,-0.727188,-0.732952,-1.000000,-0.753214,-0.663030,-0.693694,-0.718537,-0.695939,-0.751316,-0.773169,-0.778802,-0.717206,-0.647884,-0.624699,-0.559177,-0.720495,-0.680439,-0.689553,-0.714569,-0.594314,-0.602056,-0.624004,-0.721476,-0.717346,-0.758338,-0.777987
-0.814620,-0.779634,-0.713191,-0.704087,-0.632975,-0.734937,-0.718051,-0.720958,-1.000000,-0.760928,-0.671261,-0.709677,-0.735529,-0.706111,-0.762041,-0.779943,-0.774700,-0.719103,-0.639522,-0.634712,-0.569536,-0.705377,-0.669599,-0.678152,-0.710261,-0.589445,-0.616985,-0.654328,-0.771789,-0.743484,-0.766619,-0.786242
-0.822256,-0.782535,-0.709347,-0.675715,-0.627547,-0.746684,-0.733326,-0.738260,-1.000000,-0.766438,-0.650436,-0.700837,-0.731005,-0.697908,-0.762085,-0.782493,-0.788480,-0.732597,-0.671166,-0.645677,-0.604457,-0.732189,-0.668440,-0.694557,-0.718128,-0.551258,-0.590194,-0.646902,-0.748174,-0.726346,-0.775394,-0.796353
-0.806092,-0.779419,-0.734487,-0.720247,-0.646595,-0.742957,-0.738868,-0.753566,-1.000000,-0.777196,-0.689059,-0.706929,-0.716749,-0.676692,-0.754272,-0.775734,-0.760092,-0.717825,-0.678774,-0.663989,-0.605899,-0.720501,-0.692535,-0.715380,-0.737121,-0.646201,-0.638859,-0.646604,-0.740485,-0.735146,-0.763554,-0.781171
-0.824215,-0.786024,-0.742984,-0.723269,-0.619030,-0.730512,-0.740838,-0.755940,-1.000000,-0.779622,-0.692388,-0.713948,-0.729941,-0.704357,-0.776896,-0.795436,-0.785173,-0.723258,-0.689899,-0.684680,-0.601521,-0.734797,-0.694953,-0.724997,-0.754690,-0.650511,-0.628902,-0.649763,-0.748652,-0.752179,-0.785669,-0.803863
-0.828508,-0.794361,-0.733007,-0.736025,-0.672428,-0.760711,-0.743761,-0.765319,-1.000000,-0.780289,-0.653557,-0.648096,-0.725632,-0.707036,-0.778159,-0.796161,-0.789134,-0.716945,-0.680722,-0.699282,-0.611337,-0.733069,-0.689859,-0.724712,-0.747168,-0.646252,-0.614024,-0.632280,-0.743707,-0.755222,-0.787462,-0.804983
-0.817110,-0.781501,-0.738781,-0.744076,-0.645823,-0.741270,-0.729606,-0.753010,-1.000000,-0.780325,-0.669237,-0.673339,-0.722002,-0.691744,-0.761871,-0.781076,-0.775645,-0.726540,-0.680528,-0.707335,-0.531900,-0.707054,-0.675289,-0.718172,-0.746171,-0.644430,-0.627866,-0.645362,-0.737048,-0.748714,-0.778027,-0.795752
-0.814433,-0.790409,-0.730394,-0.744157,-0.668472,-0.765923,-0.751972,-0.765535,-1.000000,-0.792172,-0.692427,-0.712761,-0.732030,-0.690254,-0.768874,-0.786134,-0.775285,-0.725988,-0.668834,-0.699024,-0.606748,-0.735876,-0.695918,-0.718791,-0.745441,-0.648046,-0.638970,-0.660210,-0.755659,-0.739019,-0.773930,-0.791590
-0.813752,-0.783497,-0.741894,-0.751372,-0.678549,-0.762948,-0.750863,-0.764836,-1.000000,-0.792420,-0.703191,-0.734615,-0.772199,-0.705994,-0.770295,-0.789475,-0.780521,-0.721364,-0.688407,-0.701136,-0.612520,-0.736885,-0.696529,-0.725537,-0.747666,-0.658645,-0.634233,-0.653329,-0.782565,-0.746284,-0.777716,-0.798791
-0.817125,-0.795349,-0.748497,-0.755044,-0.673864,-0.767956,-0.755636,-0.773312,-1.000000,-0.799049,-0.709295,-0.733254,-0.758139,-0.705509,-0.771652,-0.790730,-0.780480,-0.728906,-0.697401,-0.704053,-0.607014,-0.740152,-0.692203,-0.731538,-0.757582,-0.672688,-0.653444,-0.655810,-0.757290,-0.741135,-0.780567,-0.799420
-0.802290,-0.773900,-0.746736,-0.755060,-0.680842,-0.763788,-0.721061,-0.750808,-1.000000,-0.795503,-0.712315,-0.737086,-0.768342,-0.705810,-0.767254,-0.783906,-0.764839,-0.700600,-0.699117,-0.709004,-0.613920,-0.742138,-0.652951,-0.682097,-0.731418,-0.671725,-0.663348,-0.680781,-0.777392,-0.733284,-0.776335,-0.793121
-0.815472,-0.793085,-0.753552,-0.758989,-0.688002,-0.772838,-0.770726,-0.779363,-1.000000,-0.790185,-0.705236,-0.733485,-0.728538,-0.690276,-0.766296,-0.785489,-0.783954,-0.740124,-0.710201,-0.721278,-0.621064,-0.746136,-0.715997,-0.744140,-0.756061,-0.669155,-0.659937,-0.673469,-0.737987,-0.719266,-0.769602,-0.791396
-0.809533,-0.796996,-0.752560,-0.742956,-0.676132,-0.749036,-0.748330,-0.759903,-1.000000,-0.782530,-0.687997,-0.710004,-0.754193,-0.708600,-0.767820,-0.783117,-0.775163,-0.733622,-0.708049,-0.712919,-0.608070,-0.732193,-0.670708,-0.705596,-0.737020,-0.646560,-0.644474,-0.666907,-0.766297,-0.734578,-0.775284,-0.790681
-0.815943,-0.798558,-0.735705,-0.742277,-0.678656,-0.752074,-0.760646,-0.770406,-1.000000,-0.769437,-0.664737,-0.677113,-0.714666,-0.694685,-0.766923,-0.785264,-0.780626,-0.730477,-0.701894,-0.713576,-0.622516,-0.739637,-0.705493,-0.735589,-0.763091,-0.652393,-0.631821,-0.655704,-0.737865,-0.728678,-0.771902,-0.790935
-0.810494,-0.795370,-0.736025,-0.747537,-0.674889,-0.763787,-0.756232,-0.762878,-1.000000,-0.789181,-0.704798,-0.708998,-0.765345,-0.704718,-0.763328,-0.778916,-0.773676,-0.729145,-0.665475,-0.682339,-0.611380,-0.725702,-0.689895,-0.728447,-0.744989,-0.658470,-0.669533,-0.693099,-0.765682,-0.736423,-0.760518,-0.773642
-0.815286,-0.794088,-0.737338,-0.741686,-0.676271,-0.764667,-0.769935,-0.777904,-1.000000,-0.778613,-0.698229,-0.722329,-0.747774,-0.703102,-0.764908,-0.784032,-0.780995,-0.732509,-0.682459,-0.658340,-0.603109,-0.733240,-0.700461,-0.737814,-0.765826,-0.668339,-0.664059,-0.686469,-0.751497,-0.732691,-0.767656,-0.786732
-0.810919,-0.795238,-0.719321,-0.732098,-0.673282,-0.759049,-0.767012,-0.776007,-1.000000,-0.756896,-0.682466,-0.678572,-0.719183,-0.693956,-0.761196,-0.781723,-0.780062,-0.732715,-0.640742,-0.663756,-0.589560,-0.727209,-0.693696,-0.724392,-0.754272,-0.670131,-0.659030,-0.675615,-0.716194,-0.720049,-0.765453,-0.785155
-0.813371,-0.791965,-0.747799,-0.748642,-0.667511,-0.754807,-0.774377,-0.782861,-1.000000,-0.785287,-0.703817,-0.718158,-0.740903,-0.688635,-0.763306,-0.784003,-0.780444,-0.731071,-0.694325,-0.671276,-0.602444,-0.731292,-0.712103,-0.750304,-0.773595,-0.688327,-0.664981,-0.685155,-0.730422,-0.711056,-0.765265,-0.782171
-0.799944,-0.774090,-0.711333,-0.721944,-0.592820,-0.756062,-0.757536,-0.768470,-1.000000,-0.798284,-0.702817,-0.722923,-0.757975,-0.699550,-0.758177,-0.774997,-0.762758,-0.713178,-0.662482,-0.652440,-0.575937,-0.734991,-0.695699,-0.741522,-0.763441,-0.669281,-0.653194,-0.687561,-0.762564,-0.721095,-0.764774,-0.780461
-0.815675,-0.799293,-0.740032,-0.736461,-0.642157,-0.763362,-0.765663,-0.768735,-1.000000,-0.791828,-0.701785,-0.723430,-0.752082,-0.698948,-0.756840,-0.774567,-0.772065,-0.719755,-0.680446,-0.667532,-0.598620,-0.722141,-0.708982,-0.749422,-0.772741,-0.671244,-0.659365,-0.686942,-0.762251,-0.724438,-0.763652,-0.781807
-0.819014,-0.804567,-0.753785,-0.741115,-0.646605,-0.746077,-0.773547,-0.781800,-1.000000,-0.794120,-0.687506,-0.703222,-0.722882,-0.684764,-0.762309,-0.784226,-0.786145,-0.741663,-0.687789,-0.669617,-0.614902,-0.736951,-0.713076,-0.752837,-0.769776,-0.671782,-0.636062,-0.649279,-0.743887,-0.732680,-0.769036,-0.789055
-0.816809,-0.796979,-0.732157,-0.641539,-0.601993,-0.761466,-0.771680,-0.773466,-1.000000,-0.801406,-0.708946,-0.720138,-0.749625,-0.693656,-0.763713,-0.786568,-0.781754,-0.728883,-0.681995,-0.680615,-0.618282,-0.740577,-0.720703,-0.757102,-0.779423,-0.694258,-0.672333,-0.693363,-0.770205,-0.722985,-0.773404,-0.792938
-0.811094,-0.797946,-0.751784,-0.756026,-0.641757,-0.766669,-0.773814,-0.755594,-1.000000,-0.764537,-0.690509,-0.709852,-0.732120,-0.705233,-0.773033,-0.789688,-0.779194,-0.726073,-0.707548,-0.693106,-0.618329,-0.742433,-0.724905,-0.757143,-0.773241,-0.692516,-0.664586,-0.690295,-0.754771,-0.728471,-0.775527,-0.792069
-0.817946,-0.803387,-0.730740,-0.764228,-0.638882,-0.766167,-0.775665,-0.778808,-1.000000,-0.798377,-0.672421,-0.685998,-0.751008,-0.704443,-0.770875,-0.787431,-0.781178,-0.732379,-0.692895,-0.696374,-0.605283,-0.744878,-0.721994,-0.759559,-0.779180,-0.670296,-0.655406,-0.687743,-0.767193,-0.724116,-0.770733,-0.786231
-0.818850,-0.807862,-0.755008,-0.768870,-0.632927,-0.763108,-0.774508,-0.778559,-1.000000,-0.796078,-0.682686,-0.702568,-0.749708,-0.678967,-0.749084,-0.771484,-0.773823,-0.727954,-0.707527,-0.702876,-0.614061,-0.744597,-0.719951,-0.757963,-0.772788,-0.683479,-0.640895,-0.665231,-0.763547,-0.701452,-0.749513,-0.772683
-0.817720,-0.804456,-0.748330,-0.763562,-0.645746,-0.763934,-0.772056,-0.777142,-1.000000,-0.791793,-0.693250,-0.699987,-0.746331,-0.704516,-0.771702,-0.789450,-0.782109,-0.725593,-0.707038,-0.698594,-0.613799,-0.750171,-0.720157,-0.757326,-0.772475,-0.682603,-0.667743,-0.693654,-0.744129,-0.706357,-0.770382,-0.788819
-0.809761,-0.797767,-0.746035,-0.764069,-0.651232,-0.752686,-0.772302,-0.778022,-1.000000,-0.779606,-0.662311,-0.662419,-0.737741,-0.697951,-0.759495,-0.779424,-0.759097,-0.682031,-0.705267,-0.691222,-0.606275,-0.736685,-0.719926,-0.757920,-0.771753,-0.671526,-0.640432,-0.668539,-0.710595,-0.695967,-0.763241,-0.783687
-0.819430,-0.809175,-0.745312,-0.762422,-0.650239,-0.755933,-0.771320,-0.778116,-1.000000,-0.769678,-0.679967,-0.688634,-0.735146,-0.694483,-0.772159,-0.790849,-0.786724,-0.734004,-0.708172,-0.690541,-0.594070,-0.731827,-0.708368,-0.753087,-0.772352,-0.665903,-0.658207,-0.692925,-0.741099,-0.705751,-0.774886,-0.791055
-0.819101,-0.814052,-0.750221,-0.766735,-0.663383,-0.775501,-0.783391,-0.776779,-1.000000,-0.782077,-0.695861,-0.677026,-0.707547,-0.689581,-0.779365,-0.799503,-0.793817,-0.742596,-0.716785,-0.699944,-0.642444,-0.757026,-0.738662,-0.772461,-0.780700,-0.704306,-0.676394,-0.700453,-0.713364,-0.691274,-0.779676,-0.799626
-0.832336,-0.815119,-0.753446,-0.771379,-0.638226,-0.782184,-0.800050,-0.796091,-1.000000,-0.782143,-0.669787,-0.663432,-0.672704,-0.677986,-0.780652,-0.801527,-0.796950,-0.745702,-0.717388,-0.700774,-0.634322,-0.757760,-0.745516,-0.774785,-0.783702,-0.709281,-0.668537,-0.696441,-0.721528,-0.702970,-0.783412,-0.802514
-0.836070,-0.817992,-0.749887,-0.776735,-0.674267,-0.783514,-0.791067,-0.793683,-1.000000,-0.807584,-0.707526,-0.707282,-0.752095,-0.706628,-0.777458,-0.797982,-0.797492,-0.745803,-0.723634,-0.712813,-0.645360,-0.748901,-0.734053,-0.771405,-0.792498,-0.706018,-0.669848,-0.695892,-0.756563,-0.707011,-0.779490,-0.800444
-0.834339,-0.813459,-0.734255,-0.765395,-0.668025,-0.779813,-0.796326,-0.791549,-1.000000,-0.793526,-0.668206,-0.678736,-0.745380,-0.713068,-0.781008,-0.797217,-0.802046,-0.747534,-0.694940,-0.687159,-0.560542,-0.730809,-0.745796,-0.773475,-0.785591,-0.666263,-0.650338,-0.684973,-0.759768,-0.711665,-0.780795,-0.798110
-0.824268,-0.808355,-0.735819,-0.769166,-0.664517,-0.753999,-0.793803,-0.793754,-1.000000,-0.790262,-0.678731,-0.694212,-0.731909,-0.694694,-0.771946,-0.793991,-0.784136,-0.719243,-0.698689,-0.678473,-0.610753,-0.741650,-0.735878,-0.762174,-0.784372,-0.686679,-0.645988,-0.683786,-0.711042,-0.683394,-0.769456,-0.796470
-0.827921,-0.774688,-0.690840,-0.749079,-0.648342,-0.749171,-0.756921,-0.773436,-1.000000,-0.748439,-0.625882,-0.610179,-0.699028,-0.682598,-0.765316,-0.786463,-0.805202,-0.755697,-0.635956,-0.655750,-0.596299,-0.734911,-0.700888,-0.739631,-0.750110,-0.669808,-0.628558,-0.647929,-0.683875,-0.679602,-0.763801,-0.789068
-0.831753,-0.809890,-0.736661,-0.762514,-0.664275,-0.759469,-0.764324,-0.781147,-1.000000,-0.782789,-0.689781,-0.698625,-0.722865,-0.685069,-0.756102,-0.776782,-0.794805,-0.754996,-0.670695,-0.679768,-0.598722,-0.739057,-0.701961,-0.738060,-0.767180,-0.692690,-0.666397,-0.686198,-0.736008,-0.684464,-0.757350,-0.782011
-0.844350,-0.823578,-0.730825,-0.768420,-0.670554,-0.766781,-0.765167,-0.770259,-1.000000,-0.794966,-0.690159,-0.712672,-0.745414,-0.718448,-0.779472,-0.799321,-0.812900,-0.757966,-0.650371,-0.690034,-0.633968,-0.751056,-0.716146,-0.732997,-0.767520,-0.696249,-0.655087,-0.684751,-0.747231,-0.705693,-0.776371,-0.800230
-0.812036,-0.805369,-0.728638,-0.756642,-0.663496,-0.752415,-0.756661,-0.756358,-1.000000,-0.749197,-0.650520,-0.653397,-0.677085,-0.666342,-0.748853,-0.769243,-0.791168,-0.743451,-0.689267,-0.678911,-0.630130,-0.743446,-0.704959,-0.723211,-0.740555,-0.682221,-0.601249,-0.554381,-0.673809,-0.660179,-0.750029,-0.773396
-0.829339,-0.811306,-0.733394,-0.763715,-0.677034,-0.755350,-0.769717,-0.772661,-1.000000,-0.777622,-0.640517,-0.669013,-0.704832,-0.682100,-0.757079,-0.781373,-0.801497,-0.747926,-0.692643,-0.680292,-0.621161,-0.742877,-0.718307,-0.741812,-0.767265,-0.679205,-0.611648,-0.634096,-0.714082,-0.681536,-0.755042,-0.782152
-0.829120,-0.811373,-0.732288,-0.760520,-0.671609,-0.752823,-0.765372,-0.771271,-1.000000,-0.778031,-0.666545,-0.674885,-0.699925,-0.688320,-0.764183,-0.787786,-0.804228,-0.749241,-0.690035,-0.677185,-0.628086,-0.739178,-0.711673,-0.735932,-0.749379,-0.682097,-0.617220,-0.640229,-0.698545,-0.678391,-0.760958,-0.789263
-0.821034,-0.798586,-0.724007,-0.754041,-0.663847,-0.743653,-0.762720,-0.766536,-1.000000,-0.747800,-0.636474,-0.658098,-0.644598,-0.663618,-0.750212,-0.775413,-0.797343,-0.747879,-0.681218,-0.669147,-0.625778,-0.737542,-0.705719,-0.732611,-0.755788,-0.661455,-0.601463,-0.615647,-0.672374,-0.662753,-0.746751,-0.776570
-0.824722,-0.808572,-0.726393,-0.775008,-0.678714,-0.734182,-0.768836,-0.777346,-1.000000,-0.780820,-0.664928,-0.680510,-0.709291,-0.668854,-0.751266,-0.775944,-0.791455,-0.739714,-0.671088,-0.683987,-0.621054,-0.733971,-0.695102,-0.731690,-0.769226,-0.670166,-0.626050,-0.645330,-0.703149,-0.670232,-0.756728,-0.785126
-0.837175,-0.814253,-0.706001,-0.766976,-0.668556,-0.744365,-0.773441,-0.785070,-1.000000,-0.777335,-0.665278,-0.686594,-0.716028,-0.686380,-0.763694,-0.788182,-0.803320,-0.732047,-0.681431,-0.688294,-0.622820,-0.745784,-0.716461,-0.747353,-0.773609,-0.688096,-0.638727,-0.651454,-0.711016,-0.672080,-0.761368,-0.791559
-0.832991,-0.809469,-0.719657,-0.775666,-0.687946,-0.756396,-0.748218,-0.757587,-1.000000,-0.785033,-0.673038,-0.685272,-0.707798,-0.677910,-0.752998,-0.776847,-0.805519,-0.756999,-0.627019,-0.675121,-0.627763,-0.726683,-0.688370,-0.727583,-0.739460,-0.687867,-0.642714,-0.645519,-0.719114,-0.666822,-0.746332,-0.773401
-0.837561,-0.815698,-0.723022,-0.770491,-0.688509,-0.770548,-0.780804,-0.773795,-1.000000,-0.734604,-0.505397,-0.556598,-0.651837,-0.664421,-0.757363,-0.778530,-0.809588,-0.764939,-0.702303,-0.706629,-0.631746,-0.758958,-0.723416,-0.736408,-0.771515,-0.572778,-0.467442,-0.470368,-0.686292,-0.661853,-0.755918,-0.786729
-0.838358,-0.809863,-0.728382,-0.774079,-0.686847,-0.761170,-0.773533,-0.786272,-1.000000,-0.779033,-0.642016,-0.655402,-0.697447,-0.678932,-0.762051,-0.786001,-0.809366,-0.765868,-0.688625,-0.703742,-0.636799,-0.740878,-0.715605,-0.741405,-0.774983,-0.670837,-0.595630,-0.584091,-0.701834,-0.658646,-0.759420,-0.790003
-0.835188,-0.810037,-0.731377,-0.784736,-0.690881,-0.766330,-0.774487,-0.782469,-1.000000,-0.746361,-0.581392,-0.598765,-0.646786,-0.638131,-0.751296,-0.778528,-0.809679,-0.768490,-0.689471,-0.701674,-0.637492,-0.754900,-0.722718,-0.746840,-0.768142,-0.646901,-0.560770,-0.559213,-0.644415,-0.642984,-0.753323,-0.784592
-0.839522,-0.815165,-0.732654,-0.772866,-0.594282,-0.759113,-0.774734,-0.779204,-1.000000,-0.756226,-0.627445,-0.649517,-0.677339,-0.652261,-0.747726,-0.777484,-0.812630,-0.768640,-0.690775,-0.704392,-0.602693,-0.749897,-0.707240,-0.736337,-0.768493,-0.666069,-0.587196,-0.576060,-0.677076,-0.654459,-0.746568,-0.783736
-0.837773,-0.816197,-0.730552,-0.752284,-0.656147,-0.748131,-0.778018,-0.786251,-1.000000,-0.769149,-0.620969,-0.633695,-0.692227,-0.643071,-0.728555,-0.764152,-0.799655,-0.759156,-0.691928,-0.719602,-0.622644,-0.737670,-0.723667,-0.742743,-0.770711,-0.659626,-0.594805,-0.592165,-0.695981,-0.642349,-0.729747,-0.775015
-0.837486,-0.807117,-0.724205,-0.773098,-0.677776,-0.755511,-0.774688,-0.785499,-1.000000,-0.766491,-0.613856,-0.636704,-0.686620,-0.668844,-0.748230,-0.770400,-0.799844,-0.759206,-0.699330,-0.712699,-0.621739,-0.752210,-0.724792,-0.744190,-0.768182,-0.649245,-0.581477,-0.581012,-0.697057,-0.657063,-0.743093,-0.778317
-0.842863,-0.814883,-0.720538,-0.777204,-0.693658,-0.761150,-0.784091,-0.791384,-1.000000,-0.770229,-0.613049,-0.646146,-0.684993,-0.630862,-0.739712,-0.770774,-0.814869,-0.772907,-0.713233,-0.707228,-0.633673,-0.753536,-0.728734,-0.745906,-0.774250,-0.648368,-0.585319,-0.581535,-0.709326,-0.641232,-0.741308,-0.780531
-0.832239,-0.807378,-0.720909,-0.780021,-0.705926,-0.764641,-0.782018,-0.791657,-1.000000,-0.766413,-0.609808,-0.630798,-0.675150,-0.636373,-0.743981,-0.770465,-0.805439,-0.763210,-0.691353,-0.708231,-0.620859,-0.747603,-0.721958,-0.745040,-0.767409,-0.644475,-0.578322,-0.561855,-0.672253,-0.635541,-0.738311,-0.770219
-0.829303,-0.814230,-0.729560,-0.780650,-0.732112,-0.765561,-0.779623,-0.774769,-1.000000,-0.764497,-0.589123,-0.609632,-0.652614,-0.630756,-0.743818,-0.771619,-0.810552,-0.775017,-0.691717,-0.715187,-0.660649,-0.757073,-0.728732,-0.736400,-0.765565,-0.635821,-0.578181,-0.579699,-0.688733,-0.647867,-0.739793,-0.771728
-0.836092,-0.818548,-0.740793,-0.778985,-0.725168,-0.760342,-0.768895,-0.779071,-1.000000,-0.747124,-0.552146,-0.583257,-0.598243,-0.585421,-0.727184,-0.760083,-0.810090,-0.775765,-0.705326,-0.717490,-0.656880,-0.755823,-0.707629,-0.726641,-0.756095,-0.629986,-0.547951,-0.549597,-0.672307,-0.638654,-0.731405,-0.767134
-0.836448,-0.819224,-0.746519,-0.773462,-0.706595,-0.769760,-0.780401,-0.788981,-1.000000,-0.764005,-0.598180,-0.628241,-0.648740,-0.633606,-0.741975,-0.771641,-0.811343,-0.774534,-0.703420,-0.680393,-0.644496,-0.760127,-0.723201,-0.744192,-0.769208,-0.641985,-0.573270,-0.566404,-0.672610,-0.648401,-0.735509,-0.772347
-0.839244,-0.818485,-0.742667,-0.782067,-0.730281,-0.766742,-0.782421,-0.787802,-1.000000,-0.764374,-0.598420,-0.629813,-0.650493,-0.629560,-0.745228,-0.774039,-0.805565,-0.759464,-0.704826,-0.708346,-0.664904,-0.761141,-0.726933,-0.745604,-0.768906,-0.644907,-0.577373,-0.572435,-0.687649,-0.663324,-0.744717,-0.777066
-0.838872,-0.821406,-0.743003,-0.784399,-0.724689,-0.761539,-0.776076,-0.784462,-1.000000,-0.762399,-0.596306,-0.625239,-0.652249,-0.644357,-0.743180,-0.770617,-0.806571,-0.775723,-0.701816,-0.715130,-0.658684,-0.752428,-0.718771,-0.740228,-0.765357,-0.635619,-0.570768,-0.565065,-0.681410,-0.666526,-0.739789,-0.771897
-0.829288,-0.814798,-0.743714,-0.763078,-0.695745,-0.747305,-0.772282,-0.780571,-1.000000,-0.755272,-0.591263,-0.620369,-0.642911,-0.638938,-0.743708,-0.768611,-0.799150,-0.772092,-0.694201,-0.683316,-0.634235,-0.747137,-0.703420,-0.735553,-0.762313,-0.633377,-0.562846,-0.564024,-0.672311,-0.664991,-0.740317,-0.772441
-0.822049,-0.810022,-0.740086,-0.770722,-0.711726,-0.735375,-0.767605,-0.785766,-1.000000,-0.750457,-0.587985,-0.615614,-0.649291,-0.641635,-0.749056,-0.775571,-0.804321,-0.769548,-0.694613,-0.696216,-0.650919,-0.737482,-0.704048,-0.731517,-0.761340,-0.632501,-0.569394,-0.568987,-0.695193,-0.666574,-0.746142,-0.776288
-0.812448,-0.796279,-0.729881,-0.764398,-0.707316,-0.745498,-0.747179,-0.756923,-1.000000,-0.740482,-0.579485,-0.599866,-0.649671,-0.631673,-0.736117,-0.761116,-0.799401,-0.768541,-0.679362,-0.681489,-0.639217,-0.729345,-0.690163,-0.708553,-0.747842,-0.622735,-0.562968,-0.556520,-0.673317,-0.654202,-0.735797,-0.764528
-0.824435,-0.812066,-0.745962,-0.773511,-0.713213,-0.759329,-0.769051,-0.778376,-1.000000,-0.739861,-0.554962,-0.594875,-0.626511,-0.615970,-0.731588,-0.759133,-0.805546,-0.776284,-0.697065,-0.699637,-0.662201,-0.761330,-0.710868,-0.732970,-0.758632,-0.607486,-0.544528,-0.551906,-0.679847,-0.638270,-0.727474,-0.758516
-0.824667,-0.806855,-0.749176,-0.774458,-0.696279,-0.737488,-0.733630,-0.777521,-1.000000,-0.730563,-0.564180,-0.589625,-0.614357,-0.611075,-0.740879,-0.770731,-0.805831,-0.775284,-0.707157,-0.697409,-0.653426,-0.746211,-0.654376,-0.706728,-0.745801,-0.607019,-0.531894,-0.511226,-0.627262,-0.614900,-0.732864,-0.770430
-0.835003,-0.818159,-0.717533,-0.762059,-0.706188,-0.754603,-0.759771,-0.781882,-1.000000,-0.747410,-0.597610,-0.624079,-0.663030,-0.633677,-0.746796,-0.774458,-0.813398,-0.774585,-0.644145,-0.676758,-0.643621,-0.745740,-0.700001,-0.732094,-0.750180,-0.632535,-0.564198,-0.562786,-0.700190,-0.664301,-0.748647,-0.778736
-0.836313,-0.824420,-0.761513,-0.782126,-0.712574,-0.771568,-0.784194,-0.795705,-1.000000,-0.762679,-0.580581,-0.611069,-0.654948,-0.617363,-0.744650,-0.775453,-0.810653,-0.777817,-0.725444,-0.730550,-0.681891,-0.766357,-0.729716,-0.761615,-0.771544,-0.630480,-0.550830,-0.552539,-0.704000,-0.662259,-0.746968,-0.780599
-0.840081,-0.826520,-0.767070,-0.785859,-0.727293,-0.775485,-0.793398,-0.800019,-1.000000,-0.770797,-0.571265,-0.615640,-0.640940,-0.563337,-0.721972,-0.766409,-0.814615,-0.784519,-0.732332,-0.731104,-0.689235,-0.772210,-0.733950,-0.761653,-0.774875,-0.607617,-0.539491,-0.547608,-0.686544,-0.605655,-0.730750,-0.775729
-0.826695,-0.820331,-0.771241,-0.781405,-0.714963,-0.770791,-0.785252,-0.788848,-1.000000,-0.755894,-0.582631,-0.594280,-0.656521,-0.632020,-0.744168,-0.770094,-0.804635,-0.772084,-0.733447,-0.727659,-0.683760,-0.774824,-0.728900,-0.760510,-0.759931,-0.627965,-0.529049,-0.460933,-0.692101,-0.678568,-0.755286,-0.778645
-0.840914,-0.832285,-0.769733,-0.786614,-0.729756,-0.783869,-0.796316,-0.808146,-1.000000,-0.775214,-0.602373,-0.627467,-0.663539,-0.637775,-0.752133,-0.780456,-0.812885,-0.777785,-0.733786,-0.731724,-0.686653,-0.777244,-0.734192,-0.764772,-0.775450,-0.646479,-0.580594,-0.577603,-0.668579,-0.659394,-0.744012,-0.772292
-0.844431,-0.832876,-0.774293,-0.791447,-0.720498,-0.788247,-0.796185,-0.799385,-1.000000,-0.773267,-0.602509,-0.617117,-0.653682,-0.646962,-0.765983,-0.791268,-0.816351,-0.789988,-0.741743,-0.742350,-0.685781,-0.766165,-0.737499,-0.754292,-0.773192,-0.647031,-0.584711,-0.594135,-0.681298,-0.679434,-0.766200,-0.790962
-0.841990,-0.829497,-0.773158,-0.789363,-0.736489,-0.779233,-0.790619,-0.798858,-1.000000,-0.765363,-0.603963,-0.605175,-0.664615,-0.609101,-0.761979,-0.787722,-0.809019,-0.783353,-0.725273,-0.748284,-0.692199,-0.772808,-0.729865,-0.762902,-0.784174,-0.638539,-0.591620,-0.597664,-0.707516,-0.645553,-0.765869,-0.790166
-0.838465,-0.828615,-0.763449,-0.782976,-0.725232,-0.763531,-0.780199,-0.797984,-1.000000,-0.784789,-0.553664,-0.622399,-0.681193,-0.652572,-0.757679,-0.782407,-0.809669,-0.785167,-0.712271,-0.736819,-0.682522,-0.745925,-0.722576,-0.756427,-0.783352,-0.576708,-0.510249,-0.569272,-0.730303,-0.695562,-0.761622,-0.786303
-0.814007,-0.803290,-0.759079,-0.777177,-0.692179,-0.734942,-0.758335,-0.781747,-1.000000,-0.762268,-0.567038,-0.603297,-0.654640,-0.627797,-0.748692,-0.773301,-0.797225,-0.773605,-0.715839,-0.710866,-0.641783,-0.732022,-0.694226,-0.727119,-0.765860,-0.624263,-0.561193,-0.581640,-0.713175,-0.681006,-0.747726,-0.770635
-0.828882,-0.818032,-0.771802,-0.789772,-0.731213,-0.767627,-0.779860,-0.781612,-1.000000,-0.754703,-0.554710,-0.596151,-0.643065,-0.613580,-0.742426,-0.772545,-0.803649,-0.778176,-0.737622,-0.742721,-0.683760,-0.764206,-0.724147,-0.742362,-0.733844,-0.608750,-0.551586,-0.579505,-0.712409,-0.668383,-0.741682,-0.770915
-0.834438,-0.815410,-0.734856,-0.776552,-0.729650,-0.764982,-0.771365,-0.791730,-1.000000,-0.753482,-0.571103,-0.596291,-0.657918,-0.629415,-0.751335,-0.777366,-0.805838,-0.777077,-0.733618,-0.739224,-0.689931,-0.767412,-0.713265,-0.747684,-0.770513,-0.621391,-0.559293,-0.536767,-0.723935,-0.697159,-0.756234,-0.779655
-0.837326,-0.834202,-0.786078,-0.786597,-0.733494,-0.771793,-0.776819,-0.792770,-1.000000,-0.781485,-0.616417,-0.638658,-0.671545,-0.641486,-0.758478,-0.783848,-0.804986,-0.780669,-0.723730,-0.728516,-0.679923,-0.771891,-0.718314,-0.751857,-0.775265,-0.666240,-0.615477,-0.646435,-0.733760,-0.691650,-0.759899,-0.783923
-0.831942,-0.828773,-0.780008,-0.785717,-0.737142,-0.768918,-0.773144,-0.787004,-1.000000,-0.761199,-0.592972,-0.611424,-0.650654,-0.624313,-0.746185,-0.773736,-0.799056,-0.776061,-0.742756,-0.737973,-0.703436,-0.770322,-0.711942,-0.743195,-0.763731,-0.654667,-0.599630,-0.629210,-0.698981,-0.678274,-0.752150,-0.774736
-0.836852,-0.831976,-0.781373,-0.781759,-0.746197,-0.770355,-0.771211,-0.791382,-1.000000,-0.767219,-0.606397,-0.623956,-0.667678,-0.639017,-0.758439,-0.785519,-0.806464,-0.782711,-0.743849,-0.733150,-0.700373,-0.768456,-0.708821,-0.741814,-0.770110,-0.647946,-0.604472,-0.618124,-0.723372,-0.702639,-0.763929,-0.786144
-0.827670,-0.828073,-0.785457,-0.753917,-0.713086,-0.774691,-0.770885,-0.794614,-1.000000,-0.770629,-0.612216,-0.644961,-0.687338,-0.643376,-0.739849,-0.763774,-0.789380,-0.770516,-0.746333,-0.734970,-0.661571,-0.734783,-0.704783,-0.751506,-0.777426,-0.659712,-0.594649,-0.628516,-0.731554,-0.704048,-0.749860,-0.771897
-0.841463,-0.830119,-0.785398,-0.799304,-0.741956,-0.779391,-0.774036,-0.797436,-1.000000,-0.769809,-0.610124,-0.631603,-0.678384,-0.651127,-0.764117,-0.792061,-0.803628,-0.771389,-0.747067,-0.760420,-0.694406,-0.771889,-0.712567,-0.752012,-0.781363,-0.668162,-0.608384,-0.634366,-0.726538,-0.708876,-0.764985,-0.791497
-0.838266,-0.830486,-0.782713,-0.792610,-0.741559,-0.771354,-0.768179,-0.789905,-1.000000,-0.760742,-0.583068,-0.619005,-0.672546,-0.626159,-0.743580,-0.776412,-0.801687,-0.780660,-0.741304,-0.760616,-0.710496,-0.770688,-0.705971,-0.747244,-0.770343,-0.640642,-0.586964,-0.631593,-0.732826,-0.650164,-0.742776,-0.778161
-0.750851,-0.731314,-0.660179,-0.647457,-0.546056,-0.674805,-0.746364,-0.755541,-1.000000,-0.788202,-0.724880,-0.770915,-0.753833,-0.697819,-0.612703,-0.628227,-0.680872,-0.620189,-0.595235,-0.561384,-0.504765,-0.648891,-0.715447,-0.738824,-0.782079,-0.736010,-0.651167,-0.743414,-0.759501,-0.692415,-0.634699,-0.583157
-0.746013,-0.719718,-0.644938,-0.643999,-0.542040,-0.671521,-0.738293,-0.749032,-1.000000,-0.790986,-0.726591,-0.766299,-0.754347,-0.695462,-0.601434,-0.605335,-0.673790,-0.603218,-0.576284,-0.563174,-0.474647,-0.638516,-0.705627,-0.731170,-0.775921,-0.723663,-0.632494,-0.743597,-0.772079,-0.701233,-0.637234,-0.588944
-0.757501,-0.723954,-0.649393,-0.643141,-0.530675,-0.658441,-0.742800,-0.756645,-1.000000,-0.804481,-0.734911,-0.788186,-0.764028,-0.702115,-0.610611,-0.619956,-0.684695,-0.620846,-0.585637,-0.571785,-0.510448,-0.634318,-0.707721,-0.734018,-0.780782,-0.724762,-0.646406,-0.746638,-0.785001,-0.701640,-0.632244,-0.605012
-0.752528,-0.726189,-0.658889,-0.644440,-0.534040,-0.654058,-0.737655,-0.745248,-1.000000,-0.794219,-0.715328,-0.777789,-0.756772,-0.696112,-0.597012,-0.562512,-0.676168,-0.606500,-0.589183,-0.573618,-0.461086,-0.638433,-0.699010,-0.723381,-0.765657,-0.707582,-0.635958,-0.728647,-0.780727,-0.694367,-0.611130,-0.586104
-0.737366,-0.715606,-0.621786,-0.633849,-0.537662,-0.658395,-0.740063,-0.750263,-1.000000,-0.791448,-0.718215,-0.771453,-0.750179,-0.684759,-0.580981,-0.557608,-0.661579,-0.617098,-0.566029,-0.562435,-0.495944,-0.635227,-0.711552,-0.733453,-0.773315,-0.714542,-0.633741,-0.725438,-0.768445,-0.679138,-0.619428,-0.589310
-0.714819,-0.691085,-0.611788,-0.611465,-0.513996,-0.637589,-0.682952,-0.689703,-1.000000,-0.769242,-0.702967,-0.754685,-0.718826,-0.645026,-0.512507,-0.520509,-0.658597,-0.605033,-0.578060,-0.552298,-0.507114,-0.611625,-0.645033,-0.673145,-0.733669,-0.669186,-0.622725,-0.704635,-0.745474,-0.647312,-0.579784,-0.572121
-0.756566,-0.723054,-0.644362,-0.638472,-0.537867,-0.669665,-0.739687,-0.750276,-1.000000,-0.793287,-0.714570,-0.782639,-0.764194,-0.707606,-0.635607,-0.625085,-0.692879,-0.633120,-0.586301,-0.558481,-0.523719,-0.656325,-0.706195,-0.729966,-0.778036,-0.726218,-0.632793,-0.740255,-0.782154,-0.709685,-0.663049,-0.606964
-0.749414,-0.712113,-0.650766,-0.648735,-0.544171,-0.672191,-0.727231,-0.738174,-1.000000,-0.781249,-0.696381,-0.757805,-0.745635,-0.696133,-0.621056,-0.615148,-0.703366,-0.660379,-0.599606,-0.583226,-0.537358,-0.668536,-0.704698,-0.722811,-0.768742,-0.717611,-0.631117,-0.725798,-0.759041,-0.687070,-0.656995,-0.602541
-0.750677,-0.722620,-0.623996,-0.628295,-0.529995,-0.661502,-0.732781,-0.736697,-1.000000,-0.790741,-0.710915,-0.772256,-0.747096,-0.670941,-0.571247,-0.586792,-0.697023,-0.657587,-0.587422,-0.578311,-0.511402,-0.641689,-0.702194,-0.721075,-0.768807,-0.709954,-0.605971,-0.717153,-0.762426,-0.689326,-0.619562,-0.599208
-0.739450,-0.708827,-0.637474,-0.640716,-0.528652,-0.670202,-0.735111,-0.744187,-1.000000,-0.790877,-0.717081,-0.769812,-0.756589,-0.701261,-0.620311,-0.602639,-0.682685,-0.650023,-0.606529,-0.578803,-0.504361,-0.657467,-0.702295,-0.726484,-0.772745,-0.716222,-0.628069,-0.728003,-0.773537,-0.705922,-0.662941,-0.578293
-0.740714,-0.709020,-0.630925,-0.646354,-0.543047,-0.665814,-0.739376,-0.748595,-1.000000,-0.767976,-0.704563,-0.754101,-0.753328,-0.706626,-0.627398,-0.605979,-0.690695,-0.631096,-0.590071,-0.592676,-0.533458,-0.641886,-0.704189,-0.727463,-0.765314,-0.716715,-0.625809,-0.723292,-0.761062,-0.706750,-0.667339,-0.626107
-0.723040,-0.712176,-0.636761,-0.638091,-0.511700,-0.595063,-0.704879,-0.727089,-1.000000,-0.746765,-0.687858,-0.743178,-0.736882,-0.686256,-0.612723,-0.584532,-0.672618,-0.574760,-0.410914,-0.542269,-0.505261,-0.611520,-0.687057,-0.711693,-0.748825,-0.690088,-0.602221,-0.701096,-0.742607,-0.694544,-0.645605,-0.598387
-0.747313,-0.716758,-0.635553,-0.655714,-0.561141,-0.681920,-0.739761,-0.748241,-1.000000,-0.778534,-0.711247,-0.759123,-0.754369,-0.708308,-0.616901,-0.604398,-0.708387,-0.664587,-0.621181,-0.606930,-0.539390,-0.644451,-0.705695,-0.727130,-0.766019,-0.719512,-0.636985,-0.725563,-0.762819,-0.703471,-0.657469,-0.584113
-0.761271,-0.720788,-0.624468,-0.642090,-0.522951,-0.647740,-0.730237,-0.751805,-1.000000,-0.790394,-0.724558,-0.778061,-0.760670,-0.712998,-0.617197,-0.614224,-0.718371,-0.664981,-0.594417,-0.556287,-0.481536,-0.591378,-0.672619,-0.721056,-0.773847,-0.727168,-0.644595,-0.733141,-0.769634,-0.706629,-0.654811,-0.604988
-0.766455,-0.721677,-0.646391,-0.675259,-0.564526,-0.700180,-0.757126,-0.772548,-1.000000,-0.808664,-0.724026,-0.792554,-0.777550,-0.718816,-0.622061,-0.623693,-0.720652,-0.665479,-0.623076,-0.626589,-0.509653,-0.663921,-0.710958,-0.741260,-0.785562,-0.735299,-0.637699,-0.744050,-0.791659,-0.718040,-0.663560,-0.602315
-0.766737,-0.734587,-0.651670,-0.675427,-0.500033,-0.688293,-0.746762,-0.764671,-1.000000,-0.797948,-0.702233,-0.790039,-0.777426,-0.719918,-0.594241,-0.603224,-0.718435,-0.671617,-0.642045,-0.627988,-0.510594,-0.650189,-0.703865,-0.735674,-0.781928,-0.721774,-0.603147,-0.731512,-0.791435,-0.716202,-0.648417,-0.584855
-0.756633,-0.731618,-0.656473,-0.667707,-0.571801,-0.684458,-0.758978,-0.769943,-1.000000,-0.800488,-0.710923,-0.779126,-0.764147,-0.688609,-0.582700,-0.570308,-0.694675,-0.642546,-0.634726,-0.612903,-0.497705,-0.653709,-0.718260,-0.742275,-0.780856,-0.719515,-0.626046,-0.727731,-0.776450,-0.705532,-0.643004,-0.633065
-0.765608,-0.730844,-0.648509,-0.675739,-0.559741,-0.691200,-0.756576,-0.768545,-1.000000,-0.804492,-0.715223,-0.788152,-0.780950,-0.724081,-0.641168,-0.629582,-0.717621,-0.661667,-0.628895,-0.614882,-0.501965,-0.640940,-0.713202,-0.738717,-0.781710,-0.736382,-0.628682,-0.739968,-0.788698,-0.716365,-0.664796,-0.612681
-0.761288,-0.726325,-0.660721,-0.665807,-0.540331,-0.684900,-0.752129,-0.763443,-1.000000,-0.800254,-0.702955,-0.780038,-0.770920,-0.717454,-0.619827,-0.579074,-0.714574,-0.672284,-0.636885,-0.603561,-0.457479,-0.630756,-0.713941,-0.737013,-0.774714,-0.722142,-0.617996,-0.728456,-0.781445,-0.702950,-0.648540,-0.621589
-0.743273,-0.718953,-0.658314,-0.678690,-0.565559,-0.673904,-0.741908,-0.753783,-1.000000,-0.792800,-0.698235,-0.774291,-0.760136,-0.678439,-0.591873,-0.599696,-0.691612,-0.663785,-0.634309,-0.612551,-0.513796,-0.642584,-0.697698,-0.724578,-0.773526,-0.722012,-0.606343,-0.721008,-0.777929,-0.706088,-0.653468,-0.604559
-0.752220,-0.728934,-0.651535,-0.664889,-0.548039,-0.682854,-0.746649,-0.757608,-1.000000,-0.781040,-0.698259,-0.764454,-0.754675,-0.709006,-0.602387,-0.612714,-0.706148,-0.665948,-0.630766,-0.612564,-0.501425,-0.640311,-0.698276,-0.723944,-0.765301,-0.714719,-0.606035,-0.717869,-0.760345,-0.701002,-0.628113,-0.609102
-0.738239,-0.714894,-0.634046,-0.649899,-0.526809,-0.676497,-0.740729,-0.754642,-1.000000,-0.765925,-0.679704,-0.745634,-0.748756,-0.708148,-0.605295,-0.605951,-0.703937,-0.662958,-0.619601,-0.600565,-0.513238,-0.639693,-0.693554,-0.719662,-0.758426,-0.709141,-0.609713,-0.707674,-0.752521,-0.697007,-0.646100,-0.624180
-0.753428,-0.728730,-0.646345,-0.662783,-0.542169,-0.681510,-0.746121,-0.756787,-1.000000,-0.787700,-0.698043,-0.769833,-0.758259,-0.703022,-0.593603,-0.615501,-0.706332,-0.665210,-0.633033,-0.617692,-0.516241,-0.634078,-0.699189,-0.724852,-0.767243,-0.709863,-0.604534,-0.716613,-0.763421,-0.691261,-0.627508,-0.588603
-0.739686,-0.711477,-0.641320,-0.663003,-0.547567,-0.678354,-0.745722,-0.758133,-1.000000,-0.775212,-0.690559,-0.762191,-0.754340,-0.702508,-0.602430,-0.607388,-0.694838,-0.648489,-0.631927,-0.611462,-0.508367,-0.628931,-0.696626,-0.722630,-0.761533,-0.709093,-0.606085,-0.710714,-0.762009,-0.695353,-0.642675,-0.607755
-0.746945,-0.720748,-0.636174,-0.649986,-0.530968,-0.681408,-0.742906,-0.755056,-1.000000,-0.777194,-0.682673,-0.758689,-0.750441,-0.701099,-0.597584,-0.605125,-0.696583,-0.657927,-0.615794,-0.589567,-0.503470,-0.633891,-0.695171,-0.719293,-0.759078,-0.705379,-0.603324,-0.704647,-0.759196,-0.691978,-0.641438,-0.607766
-0.751929,-0.725033,-0.653386,-0.672485,-0.554398,-0.671103,-0.741207,-0.755815,-1.000000,-0.789843,-0.691157,-0.770228,-0.761082,-0.710663,-0.605318,-0.613538,-0.698663,-0.648768,-0.631200,-0.622092,-0.514418,-0.648879,-0.690407,-0.721119,-0.769422,-0.717540,-0.592183,-0.717009,-0.774547,-0.702271,-0.646776,-0.601890
-0.739694,-0.715693,-0.632736,-0.660319,-0.550547,-0.682163,-0.743348,-0.760016,-1.000000,-0.773897,-0.681607,-0.760011,-0.746338,-0.683129,-0.576563,-0.592449,-0.681606,-0.634352,-0.608775,-0.616697,-0.510470,-0.631696,-0.678993,-0.709446,-0.757133,-0.697931,-0.566310,-0.698329,-0.759518,-0.666901,-0.619633,-0.600251
-0.731026,-0.707660,-0.638711,-0.641811,-0.548992,-0.682925,-0.747541,-0.756638,-1.000000,-0.765472,-0.675059,-0.755239,-0.733421,-0.671911,-0.567403,-0.580715,-0.671227,-0.607580,-0.601548,-0.600037,-0.498305,-0.630523,-0.691870,-0.715740,-0.754684,-0.696116,-0.568647,-0.691300,-0.741795,-0.668727,-0.609449,-0.567015
-0.711617,-0.698061,-0.641825,-0.662678,-0.544629,-0.673182,-0.738496,-0.736329,-1.000000,-0.742542,-0.662709,-0.722050,-0.688884,-0.638849,-0.535980,-0.580603,-0.656328,-0.614407,-0.608187,-0.592044,-0.508384,-0.623371,-0.685140,-0.708292,-0.743109,-0.686488,-0.578755,-0.684272,-0.705713,-0.620280,-0.560382,-0.473307
-0.731777,-0.717926,-0.636902,-0.649445,-0.537892,-0.676611,-0.743273,-0.743826,-1.000000,-0.765638,-0.690257,-0.736287,-0.719348,-0.660522,-0.554553,-0.596720,-0.676710,-0.628341,-0.610297,-0.589480,-0.483304,-0.626508,-0.691969,-0.715781,-0.753323,-0.693477,-0.593891,-0.699460,-0.731222,-0.660290,-0.588059,-0.502334
-0.733141,-0.714032,-0.632795,-0.641809,-0.530185,-0.671832,-0.741246,-0.748735,-1.000000,-0.773550,-0.689955,-0.756889,-0.734500,-0.672472,-0.573650,-0.593994,-0.671528,-0.628139,-0.568631,-0.592464,-0.451284,-0.618771,-0.691854,-0.714972,-0.754212,-0.695378,-0.583165,-0.697119,-0.750350,-0.662139,-0.598319,-0.534351
-0.722228,-0.699305,-0.616351,-0.633748,-0.498977,-0.651914,-0.715006,-0.728560,-1.000000,-0.764637,-0.675960,-0.750405,-0.728834,-0.672610,-0.576427,-0.568386,-0.655620,-0.606808,-0.586217,-0.573758,-0.444451,-0.598815,-0.672406,-0.690656,-0.723885,-0.644394,-0.572973,-0.682751,-0.747975,-0.645733,-0.579644,-0.517781
-0.751214,-0.732084,-0.660317,-0.665660,-0.550051,-0.696313,-0.754278,-0.759965,-1.000000,-0.794689,-0.709155,-0.777688,-0.752733,-0.693220,-0.598632,-0.628229,-0.690580,-0.643259,-0.611829,-0.608296,-0.502582,-0.644958,-0.710560,-0.734207,-0.774465,-0.718772,-0.597919,-0.718508,-0.772008,-0.679824,-0.614294,-0.535906
-0.738505,-0.733212,-0.658221,-0.669307,-0.550764,-0.685959,-0.724404,-0.726171,-1.000000,-0.787057,-0.704399,-0.763502,-0.733692,-0.668244,-0.542400,-0.586730,-0.680139,-0.644948,-0.610776,-0.610230,-0.495261,-0.629065,-0.684665,-0.713929,-0.763299,-0.708766,-0.607347,-0.713746,-0.752934,-0.667675,-0.594194,-0.537564
-0.733692,-0.717509,-0.635485,-0.658258,-0.542575,-0.686815,-0.741018,-0.746257,-1.000000,-0.770142,-0.672709,-0.758875,-0.737705,-0.683686,-0.591034,-0.626258,-0.673527,-0.629574,-0.591816,-0.604492,-0.489324,-0.632947,-0.699963,-0.721980,-0.760719,-0.699360,-0.561802,-0.691514,-0.757532,-0.678870,-0.616952,-0.545766
-0.745429,-0.723164,-0.645283,-0.666756,-0.557330,-0.701836,-0.756496,-0.762685,-1.000000,-0.787642,-0.702561,-0.774365,-0.745424,-0.683938,-0.589219,-0.629261,-0.682525,-0.624989,-0.617443,-0.610525,-0.498497,-0.642404,-0.705705,-0.729815,-0.767926,-0.706068,-0.600784,-0.711789,-0.767754,-0.672800,-0.614803,-0.558688
-0.743904,-0.734091,-0.636940,-0.652360,-0.544304,-0.692532,-0.751594,-0.757207,-1.000000,-0.776198,-0.689329,-0.764564,-0.740738,-0.674005,-0.581915,-0.623934,-0.687050,-0.640439,-0.595047,-0.595964,-0.485886,-0.627748,-0.691304,-0.715006,-0.756307,-0.688888,-0.587226,-0.700366,-0.762037,-0.665823,-0.616024,-0.551697
-0.758404,-0.744295,-0.660889,-0.668926,-0.555046,-0.700465,-0.758773,-0.766971,-1.000000,-0.789684,-0.707162,-0.774838,-0.755964,-0.704158,-0.619587,-0.650333,-0.701122,-0.644486,-0.624077,-0.616383,-0.507106,-0.653608,-0.710375,-0.735486,-0.774585,-0.720247,-0.614393,-0.724356,-0.774283,-0.696118,-0.632164,-0.565406
-0.748322,-0.744039,-0.655575,-0.668525,-0.556950,-0.699018,-0.745925,-0.761292,-1.000000,-0.766617,-0.697165,-0.755033,-0.731753,-0.640339,-0.534665,-0.614605,-0.697835,-0.643317,-0.615867,-0.604906,-0.493648,-0.652828,-0.699304,-0.723354,-0.759417,-0.707600,-0.604170,-0.712278,-0.751321,-0.684259,-0.614886,-0.557653
-0.746882,-0.744065,-0.657587,-0.667033,-0.553987,-0.692357,-0.749506,-0.763584,-1.000000,-0.765781,-0.686200,-0.750086,-0.729011,-0.665955,-0.595007,-0.636652,-0.690549,-0.637618,-0.612220,-0.606143,-0.494816,-0.653305,-0.700540,-0.725265,-0.764443,-0.702771,-0.591202,-0.703677,-0.747735,-0.680341,-0.613271,-0.540024
-0.726832,-0.725854,-0.651631,-0.658622,-0.550134,-0.691077,-0.746976,-0.759101,-1.000000,-0.761340,-0.673400,-0.739243,-0.725296,-0.680484,-0.601848,-0.641147,-0.667574,-0.619510,-0.593597,-0.592008,-0.493921,-0.643518,-0.697326,-0.720595,-0.759434,-0.702928,-0.590783,-0.698571,-0.744233,-0.680705,-0.623307,-0.531794
-0.752813,-0.745047,-0.647601,-0.664536,-0.563841,-0.687779,-0.749620,-0.762340,-1.000000,-0.785989,-0.682001,-0.768200,-0.742326,-0.675087,-0.599411,-0.636943,-0.692011,-0.636494,-0.588537,-0.617302,-0.529234,-0.633693,-0.688329,-0.716163,-0.762034,-0.697027,-0.571137,-0.701792,-0.769184,-0.685507,-0.631347,-0.569017
-0.747185,-0.734909,-0.641313,-0.663970,-0.555340,-0.689066,-0.748460,-0.758212,-1.000000,-0.775145,-0.699899,-0.765229,-0.737324,-0.672374,-0.591191,-0.632775,-0.680898,-0.629229,-0.597718,-0.615874,-0.510291,-0.643550,-0.697462,-0.717478,-0.756767,-0.702424,-0.605035,-0.711003,-0.759982,-0.677631,-0.633355,-0.580466
-0.752268,-0.743600,-0.660959,-0.670609,-0.577816,-0.706235,-0.747377,-0.758330,-1.000000,-0.775329,-0.691171,-0.764197,-0.742342,-0.686833,-0.595021,-0.633092,-0.691417,-0.642784,-0.620694,-0.601345,-0.518745,-0.655914,-0.697438,-0.722369,-0.763215,-0.705288,-0.593768,-0.708592,-0.763621,-0.680536,-0.627407,-0.583500
-0.747264,-0.737355,-0.656810,-0.669837,-0.571606,-0.698230,-0.751897,-0.759094,-1.000000,-0.783500,-0.701893,-0.769843,-0.738601,-0.673422,-0.578400,-0.624369,-0.691807,-0.644606,-0.621940,-0.627811,-0.515276,-0.638481,-0.694192,-0.717373,-0.758204,-0.709881,-0.604978,-0.715510,-0.764021,-0.688889,-0.623484,-0.571632
-0.737545,-0.732294,-0.611144,-0.643926,-0.561722,-0.679841,-0.743847,-0.746662,-1.000000,-0.774876,-0.665752,-0.760484,-0.732255,-0.670026,-0.578705,-0.610599,-0.674078,-0.639825,-0.591931,-0.583529,-0.510746,-0.625769,-0.674410,-0.696165,-0.743821,-0.681771,-0.574194,-0.687123,-0.755873,-0.657295,-0.589224,-0.523115
-0.753463,-0.743845,-0.668448,-0.687975,-0.579550,-0.721288,-0.761473,-0.773084,-1.000000,-0.795212,-0.718685,-0.781691,-0.756170,-0.695535,-0.624226,-0.661437,-0.692104,-0.648542,-0.630283,-0.650367,-0.540388,-0.682133,-0.714540,-0.736879,-0.776327,-0.716628,-0.624176,-0.728128,-0.781067,-0.699771,-0.659520,-0.586854
-0.739956,-0.734787,-0.671184,-0.694362,-0.613621,-0.728600,-0.767036,-0.772559,-1.000000,-0.775632,-0.705246,-0.763861,-0.747519,-0.698460,-0.631034,-0.669368,-0.672628,-0.632495,-0.620970,-0.639422,-0.561785,-0.683919,-0.712033,-0.731791,-0.771947,-0.709539,-0.610131,-0.718739,-0.768067,-0.701645,-0.668104,-0.597029
-0.771180,-0.765300,-0.678516,-0.700975,-0.612433,-0.729735,-0.759696,-0.779079,-1.000000,-0.796371,-0.731405,-0.788178,-0.771965,-0.710416,-0.660645,-0.688401,-0.714036,-0.651517,-0.631000,-0.661950,-0.567796,-0.679626,-0.721287,-0.747949,-0.791638,-0.733305,-0.612375,-0.739488,-0.792820,-0.718037,-0.680753,-0.608067
-0.765499,-0.760665,-0.679572,-0.698095,-0.620494,-0.722733,-0.756854,-0.770267,-1.000000,-0.799609,-0.730114,-0.786183,-0.761968,-0.697050,-0.654123,-0.672652,-0.700847,-0.639278,-0.637236,-0.655645,-0.560844,-0.691902,-0.716072,-0.742031,-0.786432,-0.725819,-0.625474,-0.739252,-0.790313,-0.711087,-0.678075,-0.597986
-0.760822,-0.759572,-0.682308,-0.710164,-0.615543,-0.722097,-0.757106,-0.768909,-1.000000,-0.791476,-0.730056,-0.779120,-0.757636,-0.707732,-0.650399,-0.653796,-0.703348,-0.654290,-0.641470,-0.657529,-0.565093,-0.684687,-0.715783,-0.740755,-0.780165,-0.724873,-0.626047,-0.738716,-0.778236,-0.710938,-0.665615,-0.604903
-0.737117,-0.741253,-0.679971,-0.704907,-0.607591,-0.713960,-0.745766,-0.757190,-1.000000,-0.786134,-0.718112,-0.771507,-0.752265,-0.700646,-0.641279,-0.643761,-0.683193,-0.623498,-0.629992,-0.651071,-0.568261,-0.682434,-0.705338,-0.733615,-0.776387,-0.719528,-0.622544,-0.728383,-0.771049,-0.708839,-0.668415,-0.599060
-0.767080,-0.763815,-0.687394,-0.709864,-0.617589,-0.721058,-0.757725,-0.766607,-1.000000,-0.798470,-0.726832,-0.783892,-0.763326,-0.708196,-0.650370,-0.661336,-0.715278,-0.660447,-0.630295,-0.657974,-0.566315,-0.695728,-0.714967,-0.741320,-0.784835,-0.726224,-0.630713,-0.739488,-0.786641,-0.716353,-0.668423,-0.604807
-0.770592,-0.759491,-0.681979,-0.700647,-0.615392,-0.709151,-0.758116,-0.765331,-1.000000,-0.784542,-0.680587,-0.774559,-0.758330,-0.697752,-0.644787,-0.654485,-0.716001,-0.659796,-0.639160,-0.651751,-0.562692,-0.683785,-0.716762,-0.742045,-0.781321,-0.703115,-0.524714,-0.705172,-0.784823,-0.708198,-0.667002,-0.609154
-0.763143,-0.759522,-0.679225,-0.705799,-0.619492,-0.727348,-0.756796,-0.765194,-1.000000,-0.787887,-0.724474,-0.771381,-0.741233,-0.680918,-0.629794,-0.657931,-0.705071,-0.644028,-0.629110,-0.650210,-0.563691,-0.686000,-0.712622,-0.737169,-0.775467,-0.720050,-0.651121,-0.733263,-0.771090,-0.705723,-0.662078,-0.600850
-0.782644,-0.773920,-0.696454,-0.706866,-0.611269,-0.728827,-0.760269,-0.771223,-1.000000,-0.808269,-0.739649,-0.792149,-0.770675,-0.713332,-0.649877,-0.676271,-0.733714,-0.687015,-0.659798,-0.656682,-0.575060,-0.694961,-0.728920,-0.753687,-0.792581,-0.739803,-0.672664,-0.754444,-0.795682,-0.732787,-0.684335,-0.596404
-0.779362,-0.777406,-0.701739,-0.719385,-0.625189,-0.733980,-0.763815,-0.775382,-1.000000,-0.800219,-0.743886,-0.784540,-0.770117,-0.722372,-0.647623,-0.673697,-0.724365,-0.676258,-0.655178,-0.663961,-0.544026,-0.699612,-0.731541,-0.758448,-0.792879,-0.742975,-0.677189,-0.761057,-0.785947,-0.731509,-0.689122,-0.630550
-0.787387,-0.770491,-0.689805,-0.719640,-0.613116,-0.722894,-0.764601,-0.775175,-1.000000,-0.808771,-0.740757,-0.797322,-0.774437,-0.693754,-0.656678,-0.670033,-0.734185,-0.675296,-0.631690,-0.655020,-0.544682,-0.700491,-0.730539,-0.756478,-0.794268,-0.743598,-0.677065,-0.755388,-0.798444,-0.724920,-0.696862,-0.642322
-0.789280,-0.777315,-0.691659,-0.734373,-0.634943,-0.732604,-0.763070,-0.781811,-1.000000,-0.815869,-0.744497,-0.804563,-0.786577,-0.723868,-0.667077,-0.675704,-0.724308,-0.670353,-0.606639,-0.676158,-0.568138,-0.711792,-0.722075,-0.752816,-0.797238,-0.743082,-0.666950,-0.760930,-0.812391,-0.747616,-0.717594,-0.674475
-0.787592,-0.776987,-0.689141,-0.728977,-0.623734,-0.726448,-0.753963,-0.773533,-1.000000,-0.801438,-0.731934,-0.790540,-0.778214,-0.712966,-0.651581,-0.660746,-0.726250,-0.669044,-0.658385,-0.676115,-0.565809,-0.706233,-0.718647,-0.749525,-0.794603,-0.736971,-0.670234,-0.755599,-0.791651,-0.737152,-0.714000,-0.656644
-0.796394,-0.773468,-0.697248,-0.729055,-0.632495,-0.733874,-0.765059,-0.782131,-1.000000,-0.799494,-0.729424,-0.788324,-0.786995,-0.712989,-0.602556,-0.627584,-0.744956,-0.677464,-0.671122,-0.658095,-0.585135,-0.716370,-0.731741,-0.760443,-0.800300,-0.751355,-0.674511,-0.762966,-0.799135,-0.739575,-0.698425,-0.675657
-0.744471,-0.715402,-0.635708,-0.679661,-0.603895,-0.700573,-0.728128,-0.740546,-1.000000,-0.746657,-0.707280,-0.743811,-0.742398,-0.703931,-0.619769,-0.636706,-0.724224,-0.656669,-0.639324,-0.640662,-0.565477,-0.683671,-0.702578,-0.725656,-0.745704,-0.703495,-0.653229,-0.719168,-0.744959,-0.722751,-0.677383,-0.633017
-0.726508,-0.711257,-0.643006,-0.687593,-0.602588,-0.695527,-0.722870,-0.741443,-1.000000,-0.741865,-0.693775,-0.739024,-0.737348,-0.683538,-0.627559,-0.637577,-0.681339,-0.584700,-0.630502,-0.620648,-0.542429,-0.671417,-0.684918,-0.711501,-0.739452,-0.688798,-0.625954,-0.711628,-0.757497,-0.732883,-0.691523,-0.621239
-0.768573,-0.739457,-0.688911,-0.726954,-0.625949,-0.719026,-0.754283,-0.773906,-1.000000,-0.799369,-0.742899,-0.779610,-0.770345,-0.712582,-0.641054,-0.656518,-0.724386,-0.662339,-0.656221,-0.672786,-0.565696,-0.697244,-0.716641,-0.742987,-0.783018,-0.735676,-0.670466,-0.752658,-0.788964,-0.734660,-0.700386,-0.652924
-0.770563,-0.759172,-0.688841,-0.721541,-0.636726,-0.731825,-0.763303,-0.781075,-1.000000,-0.804615,-0.742099,-0.791183,-0.775540,-0.714683,-0.622576,-0.646134,-0.720989,-0.637120,-0.643003,-0.627837,-0.569689,-0.704528,-0.723960,-0.751040,-0.789428,-0.738476,-0.666751,-0.754970,-0.792526,-0.736713,-0.689899,-0.655584
-0.768417,-0.748184,-0.666731,-0.691845,-0.608049,-0.721107,-0.731103,-0.748691,-1.000000,-0.780646,-0.713071,-0.758994,-0.724689,-0.648623,-0.558588,-0.600113,-0.708604,-0.631296,-0.583121,-0.617275,-0.557593,-0.663996,-0.679405,-0.719467,-0.768733,-0.709723,-0.623349,-0.714102,-0.754686,-0.681817,-0.638520,-0.595611
-0.765186,-0.729156,-0.633820,-0.691805,-0.585121,-0.718636,-0.702618,-0.729016,-1.000000,-0.765810,-0.717878,-0.745787,-0.699672,-0.617359,-0.464455,-0.559834,-0.711932,-0.645130,-0.581044,-0.604172,-0.485345,-0.646576,-0.639403,-0.676327,-0.733695,-0.693839,-0.614442,-0.695316,-0.722887,-0.651723,-0.598564,-0.587065
-0.774208,-0.738528,-0.674389,-0.718490,-0.634602,-0.734003,-0.762675,-0.778516,-1.000000,-0.798762,-0.741920,-0.783126,-0.763683,-0.707078,-0.614460,-0.649521,-0.722575,-0.647048,-0.635729,-0.635792,-0.571986,-0.707030,-0.719009,-0.748582,-0.788260,-0.744145,-0.663322,-0.752396,-0.778134,-0.726230,-0.685034,-0.633286
-0.762697,-0.749134,-0.658099,-0.705911,-0.633401,-0.710283,-0.740637,-0.758205,-1.000000,-0.798140,-0.721308,-0.785505,-0.756427,-0.684900,-0.571024,-0.575528,-0.699031,-0.633141,-0.594696,-0.629004,-0.544413,-0.679465,-0.680137,-0.713556,-0.770183,-0.718778,-0.620812,-0.733959,-0.782130,-0.712802,-0.664876,-0.631203
-0.760681,-0.739682,-0.664061,-0.693746,-0.619302,-0.715689,-0.742119,-0.745036,-1.000000,-0.777372,-0.702709,-0.768550,-0.746036,-0.688568,-0.599876,-0.618095,-0.718908,-0.645795,-0.617673,-0.609060,-0.537260,-0.698964,-0.691957,-0.713731,-0.759750,-0.706939,-0.597652,-0.717617,-0.763704,-0.673751,-0.614737,-0.536697
-0.759442,-0.734379,-0.669954,-0.704173,-0.625646,-0.719105,-0.747016,-0.760423,-1.000000,-0.788497,-0.735984,-0.780198,-0.756706,-0.696471,-0.583722,-0.619720,-0.705095,-0.625178,-0.634698,-0.625208,-0.581536,-0.698236,-0.697916,-0.726501,-0.771920,-0.725855,-0.663913,-0.749627,-0.777535,-0.711926,-0.638161,-0.600134
-0.723070,-0.688938,-0.643038,-0.670011,-0.586243,-0.701906,-0.729771,-0.744613,-1.000000,-0.754665,-0.710785,-0.745406,-0.716894,-0.645905,-0.568593,-0.613864,-0.681885,-0.606726,-0.617106,-0.616693,-0.512998,-0.693991,-0.680353,-0.705613,-0.745154,-0.701983,-0.647440,-0.723324,-0.733842,-0.669165,-0.625160,-0.585120
-0.758886,-0.732381,-0.659714,-0.687144,-0.620729,-0.705983,-0.733736,-0.747655,-1.000000,-0.786623,-0.743362,-0.770676,-0.743067,-0.684844,-0.576857,-0.619725,-0.713867,-0.633899,-0.602175,-0.599137,-0.518538,-0.670367,-0.683248,-0.713249,-0.764513,-0.721079,-0.666024,-0.745943,-0.766532,-0.702947,-0.631379,-0.588186
-0.746756,-0.737770,-0.658785,-0.694445,-0.618012,-0.707166,-0.740271,-0.747812,-1.000000,-0.783349,-0.724821,-0.764227,-0.738941,-0.687502,-0.576825,-0.611626,-0.698649,-0.629020,-0.622450,-0.613822,-0.553388,-0.685727,-0.688448,-0.716513,-0.762806,-0.720449,-0.664027,-0.738515,-0.759419,-0.693673,-0.619646,-0.566485
-0.759450,-0.742636,-0.654518,-0.703763,-0.623398,-0.712266,-0.735878,-0.746454,-1.000000,-0.802253,-0.749855,-0.791049,-0.752737,-0.688391,-0.571227,-0.604521,-0.699965,-0.628881,-0.608709,-0.619903,-0.534577,-0.691622,-0.694339,-0.724478,-0.774238,-0.728814,-0.676002,-0.752387,-0.779124,-0.698527,-0.620633,-0.582513
-0.766329,-0.748980,-0.671752,-0.710245,-0.625357,-0.717248,-0.742380,-0.749879,-1.000000,-0.805317,-0.756446,-0.794731,-0.758904,-0.695654,-0.577297,-0.612247,-0.711801,-0.639790,-0.616769,-0.630615,-0.549890,-0.679460,-0.702506,-0.729894,-0.777297,-0.731789,-0.678799,-0.756960,-0.784758,-0.702528,-0.627501,-0.582382
-0.770384,-0.750443,-0.664222,-0.715001,-0.631941,-0.723153,-0.761958,-0.762959,-1.000000,-0.809048,-0.753509,-0.800471,-0.763259,-0.692355,-0.567237,-0.610146,-0.707922,-0.625610,-0.592489,-0.612284,-0.522443,-0.660476,-0.709446,-0.734397,-0.780468,-0.735882,-0.669211,-0.759719,-0.789832,-0.706630,-0.626853,-0.579624
-0.768765,-0.745188,-0.642958,-0.675278,-0.612980,-0.723237,-0.754472,-0.758036,-1.000000,-0.790752,-0.731570,-0.783536,-0.754814,-0.688455,-0.580012,-0.619763,-0.707982,-0.629691,-0.610262,-0.617215,-0.543365,-0.682282,-0.699306,-0.723584,-0.772272,-0.731524,-0.663881,-0.750741,-0.775459,-0.708409,-0.636346,-0.558411
-0.768592,-0.737176,-0.639790,-0.690515,-0.613534,-0.715310,-0.751780,-0.755195,-1.000000,-0.799305,-0.739686,-0.789475,-0.748233,-0.681560,-0.570289,-0.613955,-0.708184,-0.631556,-0.605520,-0.591357,-0.523491,-0.661811,-0.693585,-0.722413,-0.771155,-0.726439,-0.663566,-0.752102,-0.772160,-0.691595,-0.614267,-0.550299
-0.771903,-0.741261,-0.635189,-0.694079,-0.613112,-0.715057,-0.754059,-0.760817,-1.000000,-0.803133,-0.736776,-0.792119,-0.753170,-0.677537,-0.575027,-0.631032,-0.708079,-0.629956,-0.613199,-0.615180,-0.537670,-0.673410,-0.699815,-0.729023,-0.779970,-0.719348,-0.646289,-0.750172,-0.776769,-0.699877,-0.624543,-0.560795
-0.759745,-0.737785,-0.644731,-0.698755,-0.623183,-0.712595,-0.746610,-0.750055,-1.000000,-0.801914,-0.736905,-0.792393,-0.755178,-0.678169,-0.560074,-0.603784,-0.676446,-0.601371,-0.608056,-0.611873,-0.520026,-0.667581,-0.694192,-0.722820,-0.776387,-0.723244,-0.643608,-0.747686,-0.778585,-0.698310,-0.618435,-0.557266
-0.765564,-0.738439,-0.632925,-0.702534,-0.616504,-0.707456,-0.753394,-0.760638,-1.000000,-0.801515,-0.736349,-0.787531,-0.749155,-0.675076,-0.548466,-0.615159,-0.709817,-0.637076,-0.563709,-0.616800,-0.532785,-0.678255,-0.701559,-0.728926,-0.778937,-0.730467,-0.652537,-0.748767,-0.778889,-0.702770,-0.622150,-0.557110
-0.737282,-0.714633,-0.632888,-0.692790,-0.613993,-0.701314,-0.719683,-0.731643,-1.000000,-0.796792,-0.732052,-0.791538,-0.748352,-0.671685,-0.559113,-0.616779,-0.668663,-0.598744,-0.600388,-0.612502,-0.524351,-0.669607,-0.679820,-0.708726,-0.761141,-0.721423,-0.628217,-0.732448,-0.767833,-0.656105,-0.586843,-0.539321
-0.740971,-0.716808,-0.643158,-0.692721,-0.606630,-0.709052,-0.744613,-0.752950,-1.000000,-0.799045,-0.740871,-0.791565,-0.753752,-0.680323,-0.566492,-0.623793,-0.678683,-0.595850,-0.609217,-0.599005,-0.516072,-0.668184,-0.690451,-0.721060,-0.772245,-0.729295,-0.654967,-0.748149,-0.774560,-0.687559,-0.594704,-0.532508
-0.753515,-0.721494,-0.640911,-0.696638,-0.608559,-0.691792,-0.738780,-0.752033,-1.000000,-0.799691,-0.735633,-0.788990,-0.754341,-0.679813,-0.566162,-0.614860,-0.686482,-0.608223,-0.607344,-0.615091,-0.538863,-0.658228,-0.683493,-0.716845,-0.770770,-0.724405,-0.649969,-0.746659,-0.776565,-0.686571,-0.595658,-0.502335
-0.752021,-0.729279,-0.617568,-0.684374,-0.572398,-0.701261,-0.737446,-0.746685,-1.000000,-0.797690,-0.724833,-0.786495,-0.736957,-0.647682,-0.544156,-0.599344,-0.684049,-0.602763,-0.577378,-0.610328,-0.526084,-0.645774,-0.674127,-0.706513,-0.764731,-0.714054,-0.630409,-0.728295,-0.764739,-0.663363,-0.587117,-0.522897
-0.748155,-0.721506,-0.628181,-0.690976,-0.612261,-0.703932,-0.737973,-0.743253,-1.000000,-0.800880,-0.731696,-0.792928,-0.750789,-0.669451,-0.552539,-0.597332,-0.677567,-0.598317,-0.604069,-0.611433,-0.543576,-0.657172,-0.680478,-0.708367,-0.767688,-0.722439,-0.599472,-0.725655,-0.774443,-0.678993,-0.592655,-0.516177
-0.769438,-0.759939,-0.698064,-0.713454,-0.631930,-0.731124,-0.756103,-0.767407,-1.000000,-0.805162,-0.772032,-0.798547,-0.774643,-0.722375,-0.655010,-0.678238,-0.717394,-0.662937,-0.614271,-0.575567,-0.545099,-0.673904,-0.726033,-0.744878,-0.777518,-0.738182,-0.704555,-0.771318,-0.791891,-0.728420,-0.680595,-0.653550
-0.754835,-0.747180,-0.687515,-0.712779,-0.552048,-0.727889,-0.761257,-0.773246,-1.000000,-0.802261,-0.772383,-0.791830,-0.770534,-0.716717,-0.641100,-0.662661,-0.698614,-0.645100,-0.615644,-0.628430,-0.584193,-0.677655,-0.721168,-0.743044,-0.777447,-0.737035,-0.701611,-0.765585,-0.792676,-0.725615,-0.677483,-0.648630
-0.745749,-0.735126,-0.672636,-0.709262,-0.681623,-0.734562,-0.762114,-0.772300,-1.000000,-0.802363,-0.762391,-0.787334,-0.765379,-0.705480,-0.649138,-0.672050,-0.689105,-0.639770,-0.612157,-0.640058,-0.594409,-0.696350,-0.730279,-0.744125,-0.779043,-0.733335,-0.689905,-0.759525,-0.781749,-0.715001,-0.675598,-0.650314
-0.712979,-0.720225,-0.677480,-0.704580,-0.675851,-0.721866,-0.752289,-0.756208,-1.000000,-0.777786,-0.731808,-0.753665,-0.727577,-0.674665,-0.617581,-0.626021,-0.656104,-0.620602,-0.601146,-0.624804,-0.585333,-0.683600,-0.715971,-0.726914,-0.758373,-0.713161,-0.686745,-0.736870,-0.749462,-0.681082,-0.653192,-0.612746
-0.724854,-0.725577,-0.657174,-0.663056,-0.646735,-0.702151,-0.754840,-0.759197,-1.000000,-0.775991,-0.730047,-0.757464,-0.725289,-0.676123,-0.615807,-0.648254,-0.657762,-0.633420,-0.570197,-0.534019,-0.531470,-0.656420,-0.709797,-0.724014,-0.752528,-0.701993,-0.671533,-0.722863,-0.743993,-0.680727,-0.645147,-0.603070
-0.748914,-0.750169,-0.673660,-0.690491,-0.675475,-0.734712,-0.765161,-0.773009,-1.000000,-0.806609,-0.744035,-0.781267,-0.738489,-0.654483,-0.603210,-0.637109,-0.679288,-0.656307,-0.617606,-0.619547,-0.590563,-0.690153,-0.723988,-0.741361,-0.776049,-0.720035,-0.680237,-0.737956,-0.774023,-0.687168,-0.655669,-0.619526
-0.752267,-0.751257,-0.659970,-0.699053,-0.674272,-0.702440,-0.730854,-0.743315,-1.000000,-0.806727,-0.756946,-0.781871,-0.736839,-0.673262,-0.589699,-0.624867,-0.698930,-0.678689,-0.556925,-0.591418,-0.546025,-0.631984,-0.686807,-0.711064,-0.758150,-0.696165,-0.649269,-0.744639,-0.774824,-0.674698,-0.635177,-0.602170
-0.792471,-0.779647,-0.700458,-0.728037,-0.694091,-0.755949,-0.781765,-0.797989,-1.000000,-0.828939,-0.777288,-0.815377,-0.792589,-0.749279,-0.670456,-0.691206,-0.731748,-0.681482,-0.619440,-0.628847,-0.586896,-0.707970,-0.755332,-0.771820,-0.806618,-0.763570,-0.702358,-0.787833,-0.812434,-0.735883,-0.690787,-0.659106
-0.792792,-0.785220,-0.707067,-0.729815,-0.692604,-0.759693,-0.779194,-0.794303,-1.000000,-0.822599,-0.771037,-0.804010,-0.781229,-0.735936,-0.663132,-0.680961,-0.736112,-0.691545,-0.634601,-0.641474,-0.590534,-0.706216,-0.741591,-0.762563,-0.800027,-0.757795,-0.696595,-0.780170,-0.799054,-0.730026,-0.684583,-0.649250
-0.774495,-0.765449,-0.701706,-0.729505,-0.691995,-0.749535,-0.770236,-0.779841,-1.000000,-0.802942,-0.755960,-0.784572,-0.776636,-0.739084,-0.622511,-0.622891,-0.730438,-0.681922,-0.634093,-0.647236,-0.574130,-0.710795,-0.738898,-0.755082,-0.792061,-0.747587,-0.687930,-0.766070,-0.784942,-0.725372,-0.673687,-0.639081
-0.771769,-0.768746,-0.693586,-0.723594,-0.676760,-0.732908,-0.766694,-0.775029,-1.000000,-0.796116,-0.765176,-0.788069,-0.771629,-0.732678,-0.658407,-0.675150,-0.720510,-0.649953,-0.611261,-0.636340,-0.598106,-0.697580,-0.735880,-0.751126,-0.783033,-0.749264,-0.694322,-0.769897,-0.778811,-0.709279,-0.684946,-0.642731
-0.749728,-0.755118,-0.690928,-0.719255,-0.688226,-0.744959,-0.758176,-0.766546,-1.000000,-0.779911,-0.743522,-0.753163,-0.750225,-0.718345,-0.658478,-0.671827,-0.699355,-0.624767,-0.605066,-0.614142,-0.554679,-0.689325,-0.717210,-0.723885,-0.753615,-0.726662,-0.679497,-0.745415,-0.750757,-0.701098,-0.679293,-0.643654
-0.784093,-0.773961,-0.700609,-0.730530,-0.665871,-0.751444,-0.754517,-0.773057,-1.000000,-0.817480,-0.770474,-0.805025,-0.787344,-0.742003,-0.663092,-0.675389,-0.735671,-0.699478,-0.619847,-0.644527,-0.603764,-0.712801,-0.712979,-0.743335,-0.796422,-0.756403,-0.697659,-0.780609,-0.798696,-0.729810,-0.689569,-0.659687
-0.781942,-0.766092,-0.702843,-0.731637,-0.686413,-0.740646,-0.773417,-0.784883,-1.000000,-0.824989,-0.772311,-0.809567,-0.788685,-0.734314,-0.645379,-0.677419,-0.704032,-0.670539,-0.629520,-0.649623,-0.597881,-0.701379,-0.741004,-0.758507,-0.796271,-0.750570,-0.686294,-0.774827,-0.801045,-0.712886,-0.691162,-0.663877
-0.787363,-0.770601,-0.688127,-0.718185,-0.672047,-0.736019,-0.765723,-0.774100,-1.000000,-0.808622,-0.752334,-0.791058,-0.772736,-0.731795,-0.656208,-0.679376,-0.728854,-0.688389,-0.581382,-0.637345,-0.602551,-0.691192,-0.737970,-0.753987,-0.788565,-0.739794,-0.675000,-0.762018,-0.778467,-0.714192,-0.676410,-0.651299
-0.769239,-0.738280,-0.674735,-0.708712,-0.662040,-0.720484,-0.746389,-0.755373,-1.000000,-0.778466,-0.683473,-0.760691,-0.736076,-0.696698,-0.601129,-0.656965,-0.716691,-0.675743,-0.613023,-0.624671,-0.589330,-0.683937,-0.710478,-0.732466,-0.771845,-0.711025,-0.600233,-0.711582,-0.754917,-0.682291,-0.649585,-0.596925
-0.764582,-0.737140,-0.653276,-0.678098,-0.603512,-0.707582,-0.727047,-0.742841,-1.000000,-0.791605,-0.735325,-0.779562,-0.753136,-0.697437,-0.632884,-0.652802,-0.706520,-0.659139,-0.572943,-0.606078,-0.566141,-0.668888,-0.698468,-0.720768,-0.763551,-0.724947,-0.657479,-0.742021,-0.769756,-0.699576,-0.675514,-0.634590
-0.740593,-0.705569,-0.642792,-0.657197,-0.602324,-0.699511,-0.724699,-0.743780,-1.000000,-0.811784,-0.750372,-0.792539,-0.762120,-0.710506,-0.636292,-0.627188,-0.673513,-0.599478,-0.604903,-0.605790,-0.561397,-0.672119,-0.699623,-0.722193,-0.768237,-0.726147,-0.673813,-0.755058,-0.785906,-0.705408,-0.669338,-0.616106
-0.743755,-0.721775,-0.674085,-0.677534,-0.635760,-0.708476,-0.733881,-0.744734,-1.000000,-0.807723,-0.734699,-0.785016,-0.746458,-0.690069,-0.620814,-0.640318,-0.684454,-0.639453,-0.613229,-0.598239,-0.551751,-0.680757,-0.706560,-0.726042,-0.766593,-0.709569,-0.623771,-0.729058,-0.776095,-0.687392,-0.660973,-0.624769
-0.759948,-0.737400,-0.667657,-0.672226,-0.611652,-0.692796,-0.733068,-0.739343,-1.000000,-0.804839,-0.749261,-0.783673,-0.755761,-0.700740,-0.632286,-0.655462,-0.700442,-0.645377,-0.599768,-0.592204,-0.532758,-0.641176,-0.701440,-0.722211,-0.762046,-0.716833,-0.665375,-0.746791,-0.776113,-0.696867,-0.670748,-0.609992
-0.768209,-0.739198,-0.673294,-0.647397,-0.598291,-0.711218,-0.731829,-0.746584,-1.000000,-0.814832,-0.744489,-0.793750,-0.761018,-0.707477,-0.625654,-0.656095,-0.703418,-0.635374,-0.612661,-0.541656,-0.537582,-0.677703,-0.695494,-0.718998,-0.772680,-0.730885,-0.652081,-0.755066,-0.781589,-0.696532,-0.667788,-0.635660
-0.767811,-0.746951,-0.689246,-0.677955,-0.619373,-0.713683,-0.743070,-0.755663,-1.000000,-0.823253,-0.740899,-0.802996,-0.773448,-0.720096,-0.634487,-0.658322,-0.691440,-0.619910,-0.630708,-0.600422,-0.563974,-0.677262,-0.701575,-0.733562,-0.786770,-0.748424,-0.658457,-0.760751,-0.791458,-0.713000,-0.676033,-0.630269
-0.753254,-0.737169,-0.689872,-0.670480,-0.613192,-0.714098,-0.741115,-0.750659,-1.000000,-0.812579,-0.740044,-0.790079,-0.760861,-0.706811,-0.611542,-0.644395,-0.674439,-0.581979,-0.626542,-0.601625,-0.533198,-0.684734,-0.698843,-0.721925,-0.775256,-0.725674,-0.653962,-0.746072,-0.780055,-0.695953,-0.645263,-0.619554
-0.758646,-0.748997,-0.688836,-0.685127,-0.623324,-0.712584,-0.743090,-0.761969,-1.000000,-0.819092,-0.745769,-0.801088,-0.777280,-0.723183,-0.626461,-0.654138,-0.696887,-0.623357,-0.629993,-0.613592,-0.556875,-0.689098,-0.720296,-0.744456,-0.792434,-0.750084,-0.668872,-0.765759,-0.794926,-0.714844,-0.682302,-0.640316
-0.762267,-0.746519,-0.696802,-0.685056,-0.610691,-0.721083,-0.752888,-0.764520,-1.000000,-0.824260,-0.748290,-0.807381,-0.773115,-0.720024,-0.629276,-0.658121,-0.694846,-0.610856,-0.629603,-0.606826,-0.531310,-0.690930,-0.719599,-0.742476,-0.791149,-0.749781,-0.665727,-0.764870,-0.793315,-0.700959,-0.672564,-0.645078
-0.760315,-0.742749,-0.696680,-0.676093,-0.617057,-0.718942,-0.752348,-0.764912,-1.000000,-0.815024,-0.728329,-0.798737,-0.773646,-0.721570,-0.640970,-0.659781,-0.702583,-0.629217,-0.626064,-0.606740,-0.562053,-0.685592,-0.719392,-0.742978,-0.787717,-0.744044,-0.645237,-0.749386,-0.790482,-0.719842,-0.692255,-0.646980
-0.767090,-0.747767,-0.693983,-0.679001,-0.590857,-0.712359,-0.744347,-0.761568,-1.000000,-0.818223,-0.738957,-0.801264,-0.778150,-0.723932,-0.622514,-0.648592,-0.703451,-0.620349,-0.626889,-0.591652,-0.537029,-0.684801,-0.713604,-0.737849,-0.789909,-0.745517,-0.650839,-0.758105,-0.797574,-0.718814,-0.697794,-0.662835
-0.761867,-0.745769,-0.698194,-0.669889,-0.608405,-0.707253,-0.751794,-0.767765,-1.000000,-0.818285,-0.737548,-0.803520,-0.784254,-0.733818,-0.663392,-0.667812,-0.695718,-0.598575,-0.605446,-0.569759,-0.519424,-0.682471,-0.714457,-0.739856,-0.790402,-0.746594,-0.653725,-0.760711,-0.803363,-0.739591,-0.709021,-0.665965
-0.772893,-0.756302,-0.711034,-0.679174,-0.593370,-0.703447,-0.752738,-0.769400,-1.000000,-0.813654,-0.736196,-0.794039,-0.781098,-0.740575,-0.655369,-0.652478,-0.713154,-0.630545,-0.638647,-0.584790,-0.501591,-0.680874,-0.715469,-0.743858,-0.794894,-0.754543,-0.646946,-0.760144,-0.792877,-0.740000,-0.702011,-0.660763
-0.764545,-0.745156,-0.702942,-0.665930,-0.596033,-0.699021,-0.743484,-0.762386,-1.000000,-0.804804,-0.732574,-0.787749,-0.775497,-0.734948,-0.624227,-0.641956,-0.703608,-0.622852,-0.640067,-0.574180,-0.521142,-0.675667,-0.704912,-0.734624,-0.788369,-0.746360,-0.645471,-0.754551,-0.782771,-0.731170,-0.694094,-0.655269
-0.763839,-0.741815,-0.698008,-0.673001,-0.592852,-0.704061,-0.749970,-0.765624,-1.000000,-0.807851,-0.731526,-0.790009,-0.769617,-0.717522,-0.657765,-0.671027,-0.690957,-0.591848,-0.624277,-0.590493,-0.527733,-0.679900,-0.709512,-0.733722,-0.783508,-0.743334,-0.646805,-0.752966,-0.779151,-0.709039,-0.698353,-0.663214
-0.731716,-0.730863,-0.687717,-0.668722,-0.598364,-0.662139,-0.731650,-0.748532,-1.000000,-0.776693,-0.698875,-0.753915,-0.748200,-0.704792,-0.612404,-0.624205,-0.684021,-0.605491,-0.608512,-0.587864,-0.520131,-0.662334,-0.684880,-0.713136,-0.762513,-0.718199,-0.625651,-0.726850,-0.761572,-0.712576,-0.696033,-0.638471
-0.757815,-0.742219,-0.696557,-0.654043,-0.573933,-0.693267,-0.733629,-0.752007,-1.000000,-0.796922,-0.723123,-0.780809,-0.773917,-0.739031,-0.681095,-0.678845,-0.709891,-0.608914,-0.620512,-0.532841,-0.508009,-0.667751,-0.697476,-0.725035,-0.778598,-0.743787,-0.644174,-0.751126,-0.783826,-0.740237,-0.718946,-0.674461
-0.739836,-0.722406,-0.689777,-0.681450,-0.611390,-0.703872,-0.728055,-0.735743,-1.000000,-0.776469,-0.693763,-0.760271,-0.747657,-0.725062,-0.643695,-0.662779,-0.689370,-0.566979,-0.610716,-0.587500,-0.534846,-0.678704,-0.687614,-0.717729,-0.773919,-0.724810,-0.619034,-0.724084,-0.757283,-0.705437,-0.670158,-0.643610
-0.752451,-0.730618,-0.687799,-0.667285,-0.608899,-0.695146,-0.734289,-0.745140,-1.000000,-0.803546,-0.727666,-0.771054,-0.751713,-0.708214,-0.634913,-0.629678,-0.704727,-0.611607,-0.625756,-0.583439,-0.519216,-0.657773,-0.687173,-0.718197,-0.774428,-0.729461,-0.664721,-0.742344,-0.770002,-0.708846,-0.668294,-0.640950
-0.764312,-0.741523,-0.696404,-0.654913,-0.567813,-0.689510,-0.734579,-0.753499,-1.000000,-0.798820,-0.731503,-0.785634,-0.774622,-0.729013,-0.665016,-0.675410,-0.711757,-0.609636,-0.635645,-0.551076,-0.501897,-0.674866,-0.705758,-0.729703,-0.780569,-0.734555,-0.659794,-0.754223,-0.790150,-0.732733,-0.699893,-0.668305
-0.762784,-0.751523,-0.703385,-0.673665,-0.598274,-0.703662,-0.741712,-0.755757,-1.000000,-0.801731,-0.739582,-0.783934,-0.758259,-0.708351,-0.656326,-0.667005,-0.709259,-0.617442,-0.642635,-0.590752,-0.524598,-0.680275,-0.698280,-0.724914,-0.777582,-0.730829,-0.680590,-0.759456,-0.782571,-0.713629,-0.694582,-0.650980
-0.779342,-0.756807,-0.707891,-0.676137,-0.592973,-0.710601,-0.752297,-0.757817,-1.000000,-0.813805,-0.741139,-0.798194,-0.785196,-0.737571,-0.663452,-0.668674,-0.717445,-0.619424,-0.622435,-0.583214,-0.504167,-0.682180,-0.717867,-0.740316,-0.793438,-0.755708,-0.679038,-0.766871,-0.795840,-0.737172,-0.706260,-0.678065
-0.779644,-0.757272,-0.712025,-0.675784,-0.598740,-0.708458,-0.759402,-0.767721,-1.000000,-0.816358,-0.741423,-0.801651,-0.786796,-0.739205,-0.678507,-0.686215,-0.723821,-0.625263,-0.638082,-0.574752,-0.518205,-0.681849,-0.721089,-0.747450,-0.797583,-0.755895,-0.679432,-0.770134,-0.800941,-0.734087,-0.706323,-0.681371
-0.768877,-0.757905,-0.707549,-0.664883,-0.603400,-0.713086,-0.755612,-0.754402,-1.000000,-0.803114,-0.740349,-0.789130,-0.768216,-0.726765,-0.657014,-0.682610,-0.714397,-0.624848,-0.641226,-0.586382,-0.533524,-0.682404,-0.711862,-0.737633,-0.786016,-0.753230,-0.676458,-0.767074,-0.777737,-0.716987,-0.653313,-0.589772
-0.779799,-0.758433,-0.702151,-0.674316,-0.581489,-0.687651,-0.746899,-0.757486,-1.000000,-0.798645,-0.738649,-0.784873,-0.767882,-0.733367,-0.654934,-0.670630,-0.723246,-0.631675,-0.639378,-0.571888,-0.520244,-0.657411,-0.712137,-0.745719,-0.789792,-0.751908,-0.683663,-0.765202,-0.772551,-0.719306,-0.653180,-0.626022
-0.763542,-0.748849,-0.700722,-0.676188,-0.595843,-0.707872,-0.749815,-0.754237,-1.000000,-0.789207,-0.721025,-0.769966,-0.757386,-0.718164,-0.655785,-0.660048,-0.717660,-0.627633,-0.621625,-0.588300,-0.517699,-0.666602,-0.700754,-0.734254,-0.788140,-0.746019,-0.673332,-0.751134,-0.766958,-0.714762,-0.666962,-0.604327
-0.741012,-0.711983,-0.662296,-0.639211,-0.568944,-0.676440,-0.729948,-0.738727,-1.000000,-0.768267,-0.729820,-0.756184,-0.743479,-0.711048,-0.661761,-0.674291,-0.706164,-0.613311,-0.558841,-0.527471,-0.519266,-0.669816,-0.690908,-0.718815,-0.765308,-0.723274,-0.667153,-0.734371,-0.748944,-0.708910,-0.671976,-0.631193
-0.745702,-0.724499,-0.686034,-0.654657,-0.586860,-0.693209,-0.745420,-0.747905,-1.000000,-0.779801,-0.734604,-0.766514,-0.751730,-0.706424,-0.643700,-0.663835,-0.705964,-0.610256,-0.624024,-0.538062,-0.522283,-0.669580,-0.697547,-0.722952,-0.765518,-0.719734,-0.679809,-0.742163,-0.770650,-0.717182,-0.673512,-0.620301
-0.771569,-0.751780,-0.693834,-0.669189,-0.600633,-0.706638,-0.764028,-0.766393,-1.000000,-0.811356,-0.744757,-0.793184,-0.776624,-0.727347,-0.672072,-0.673649,-0.723334,-0.621557,-0.621872,-0.541567,-0.498170,-0.662082,-0.709777,-0.738776,-0.790227,-0.740892,-0.669944,-0.751956,-0.796639,-0.733893,-0.694787,-0.657369
-0.751528,-0.723924,-0.694391,-0.659896,-0.606496,-0.700399,-0.759752,-0.765275,-1.000000,-0.808333,-0.741617,-0.789327,-0.767480,-0.717181,-0.654130,-0.650998,-0.700281,-0.604505,-0.609228,-0.550451,-0.529072,-0.684330,-0.712124,-0.737600,-0.786332,-0.732458,-0.655628,-0.740681,-0.787139,-0.725877,-0.673182,-0.633990
-0.761729,-0.743140,-0.709818,-0.677308,-0.605267,-0.710636,-0.764415,-0.767436,-1.000000,-0.808504,-0.727625,-0.792527,-0.766501,-0.714708,-0.674747,-0.672046,-0.714710,-0.630149,-0.618652,-0.520887,-0.456920,-0.687559,-0.712961,-0.737791,-0.782709,-0.720255,-0.658661,-0.738521,-0.795789,-0.723044,-0.692046,-0.649702
-0.776200,-0.758354,-0.710762,-0.680549,-0.622848,-0.720093,-0.774549,-0.781407,-1.000000,-0.816359,-0.758211,-0.805700,-0.784027,-0.731405,-0.682680,-0.680604,-0.726730,-0.627486,-0.639273,-0.562220,-0.527371,-0.688573,-0.722062,-0.747786,-0.791813,-0.741851,-0.683020,-0.763610,-0.802048,-0.739614,-0.700288,-0.653174
-0.781504,-0.763106,-0.710953,-0.689898,-0.622515,-0.729430,-0.782624,-0.786554,-1.000000,-0.812435,-0.774976,-0.800811,-0.777688,-0.722105,-0.688340,-0.685841,-0.732322,-0.648129,-0.633306,-0.547500,-0.550193,-0.700071,-0.723627,-0.749879,-0.789668,-0.746201,-0.702683,-0.769712,-0.791843,-0.734435,-0.704606,-0.663151
-0.774047,-0.761893,-0.706507,-0.693773,-0.615928,-0.719200,-0.772362,-0.780656,-1.000000,-0.809990,-0.762824,-0.796572,-0.781370,-0.721785,-0.677492,-0.688527,-0.715781,-0.591902,-0.605937,-0.576161,-0.540572,-0.686818,-0.716923,-0.746082,-0.786432,-0.737218,-0.692893,-0.762954,-0.799985,-0.737826,-0.702273,-0.650444
-0.776286,-0.746408,-0.698894,-0.694479,-0.619797,-0.708466,-0.771520,-0.777871,-1.000000,-0.799076,-0.761923,-0.791053,-0.771220,-0.719785,-0.683399,-0.689995,-0.743820,-0.660306,-0.625283,-0.564503,-0.540351,-0.678803,-0.720861,-0.746294,-0.783013,-0.738640,-0.689770,-0.759538,-0.782498,-0.728053,-0.691998,-0.661027
-0.785075,-0.760165,-0.711468,-0.700560,-0.610741,-0.718944,-0.756492,-0.772281,-1.000000,-0.812272,-0.763801,-0.802039,-0.785390,-0.732151,-0.687869,-0.687764,-0.746552,-0.664702,-0.635697,-0.571402,-0.554689,-0.680170,-0.701218,-0.736088,-0.790302,-0.745277,-0.693414,-0.768332,-0.796509,-0.740635,-0.702307,-0.661343
-0.778868,-0.745778,-0.695257,-0.689966,-0.597242,-0.715641,-0.771155,-0.777273,-1.000000,-0.815362,-0.762960,-0.808252,-0.784890,-0.728280,-0.683445,-0.681864,-0.729970,-0.646396,-0.610750,-0.557621,-0.541944,-0.683719,-0.719338,-0.742772,-0.784612,-0.737097,-0.678898,-0.760512,-0.805704,-0.736821,-0.699332,-0.654615
-0.768055,-0.731444,-0.685207,-0.677663,-0.601786,-0.704932,-0.761199,-0.767800,-1.000000,-0.788988,-0.740166,-0.778538,-0.752890,-0.705156,-0.669960,-0.665078,-0.731986,-0.648831,-0.606780,-0.552403,-0.516629,-0.669043,-0.713868,-0.736332,-0.771352,-0.728081,-0.671980,-0.741860,-0.770252,-0.714948,-0.670087,-0.645865
-0.762998,-0.712917,-0.652482,-0.655919,-0.597592,-0.706121,-0.743659,-0.755645,-1.000000,-0.790482,-0.748744,-0.774405,-0.754504,-0.700819,-0.648289,-0.615813,-0.727165,-0.647060,-0.569609,-0.529334,-0.473967,-0.666052,-0.691368,-0.713442,-0.761912,-0.719652,-0.680102,-0.742154,-0.771364,-0.718983,-0.661846,-0.646436
-0.781234,-0.750143,-0.688261,-0.674758,-0.587000,-0.709455,-0.764106,-0.767263,-1.000000,-0.798852,-0.749617,-0.786964,-0.764303,-0.693488,-0.642971,-0.662241,-0.739176,-0.663328,-0.608474,-0.569446,-0.534891,-0.669359,-0.712312,-0.735303,-0.772409,-0.721772,-0.684739,-0.751891,-0.790240,-0.730985,-0.672393,-0.626896
-0.769151,-0.741642,-0.680658,-0.665539,-0.619308,-0.712839,-0.759011,-0.759014,-1.000000,-0.803025,-0.747898,-0.798919,-0.775443,-0.722531,-0.670834,-0.659020,-0.725387,-0.642268,-0.600741,-0.558798,-0.540900,-0.677504,-0.707040,-0.728258,-0.770213,-0.723739,-0.659505,-0.744140,-0.796520,-0.728363,-0.681361,-0.638028
-0.768388,-0.738205,-0.680414,-0.678769,-0.617992,-0.713154,-0.767422,-0.766459,-1.000000,-0.807062,-0.754446,-0.802332,-0.776383,-0.713752,-0.677750,-0.674750,-0.721040,-0.632087,-0.558212,-0.568753,-0.525909,-0.679086,-0.713207,-0.734251,-0.779098,-0.732509,-0.664389,-0.748548,-0.799354,-0.724273,-0.679123,-0.630503
-0.767718,-0.736337,-0.672746,-0.672233,-0.618117,-0.708310,-0.760581,-0.759535,-1.000000,-0.793162,-0.750442,-0.787590,-0.769867,-0.716047,-0.666869,-0.668563,-0.721947,-0.636494,-0.609290,-0.554810,-0.517891,-0.667153,-0.712888,-0.736284,-0.776291,-0.734453,-0.671598,-0.750096,-0.789555,-0.726607,-0.674593,-0.623386
-0.745390,-0.719889,-0.644678,-0.650638,-0.608871,-0.675273,-0.737798,-0.744893,-1.000000,-0.779655,-0.729842,-0.761172,-0.743319,-0.701655,-0.646078,-0.655123,-0.704395,-0.613559,-0.581325,-0.532196,-0.520389,-0.661809,-0.692817,-0.720671,-0.767129,-0.726237,-0.662835,-0.735825,-0.763528,-0.709130,-0.644441,-0.588283
-0.749975,-0.721720,-0.656670,-0.663302,-0.608251,-0.697606,-0.745400,-0.746204,-1.000000,-0.788026,-0.731690,-0.776022,-0.752479,-0.695035,-0.646698,-0.643800,-0.706413,-0.613199,-0.582490,-0.554149,-0.508642,-0.662154,-0.690078,-0.720189,-0.765741,-0.720752,-0.661641,-0.734809,-0.767035,-0.707837,-0.646690,-0.609373
-0.729538,-0.696098,-0.633145,-0.644022,-0.588988,-0.661894,-0.712396,-0.716681,-1.000000,-0.768983,-0.691805,-0.752370,-0.733353,-0.679702,-0.624274,-0.634475,-0.669830,-0.569711,-0.558693,-0.522377,-0.511262,-0.631053,-0.665858,-0.691325,-0.741171,-0.681157,-0.632210,-0.704693,-0.756221,-0.687250,-0.625188,-0.576274
-0.750661,-0.724208,-0.642123,-0.637013,-0.579946,-0.683945,-0.729969,-0.732004,-1.000000,-0.789188,-0.732288,-0.777968,-0.753403,-0.695114,-0.623901,-0.628187,-0.691249,-0.619068,-0.570655,-0.541294,-0.507126,-0.645009,-0.675852,-0.700194,-0.752531,-0.706554,-0.651683,-0.727633,-0.775087,-0.702945,-0.636695,-0.585410
-0.774656,-0.739439,-0.662757,-0.666937,-0.593366,-0.704598,-0.744082,-0.748762,-1.000000,-0.804478,-0.757702,-0.798911,-0.775465,-0.718370,-0.654700,-0.657291,-0.722254,-0.647328,-0.592566,-0.555893,-0.522101,-0.664844,-0.701821,-0.727159,-0.771253,-0.739254,-0.675985,-0.752749,-0.793618,-0.734951,-0.670891,-0.623616
-0.773226,-0.734764,-0.637246,-0.670296,-0.599868,-0.677636,-0.732744,-0.732954,-1.000000,-0.802424,-0.747075,-0.798111,-0.762622,-0.691681,-0.637034,-0.654549,-0.726319,-0.653821,-0.583435,-0.562283,-0.520512,-0.656946,-0.685766,-0.714875,-0.765528,-0.724227,-0.664226,-0.741773,-0.790796,-0.704650,-0.649151,-0.595076
-0.770532,-0.741244,-0.658104,-0.669781,-0.606470,-0.689720,-0.742667,-0.745271,-1.000000,-0.804119,-0.743183,-0.798043,-0.772913,-0.714536,-0.653932,-0.655322,-0.719606,-0.646583,-0.568989,-0.564976,-0.531376,-0.661271,-0.699781,-0.725353,-0.772034,-0.732459,-0.655147,-0.739871,-0.796915,-0.732465,-0.675585,-0.626182
-0.753166,-0.724338,-0.636239,-0.666140,-0.606722,-0.692617,-0.742930,-0.748538,-1.000000,-0.800717,-0.745022,-0.790807,-0.763949,-0.708813,-0.652956,-0.653924,-0.705317,-0.638666,-0.555450,-0.555273,-0.521413,-0.659263,-0.696890,-0.722410,-0.767353,-0.725322,-0.665033,-0.738103,-0.785215,-0.722713,-0.664959,-0.607747
-0.765584,-0.742016,-0.647962,-0.670706,-0.601021,-0.685310,-0.726672,-0.732397,-1.000000,-0.793840,-0.749084,-0.784792,-0.759210,-0.704964,-0.652039,-0.647777,-0.724436,-0.656638,-0.592794,-0.562167,-0.494337,-0.637879,-0.676435,-0.704937,-0.755316,-0.731348,-0.672565,-0.745205,-0.777132,-0.712633,-0.662324,-0.609794
-0.753260,-0.725304,-0.649409,-0.663374,-0.603310,-0.688454,-0.734432,-0.743790,-1.000000,-0.792588,-0.742270,-0.779978,-0.758759,-0.708090,-0.649021,-0.640997,-0.703777,-0.624735,-0.583774,-0.557573,-0.506890,-0.642695,-0.685614,-0.714854,-0.760619,-0.727471,-0.660026,-0.739828,-0.773487,-0.716509,-0.661307,-0.610123
-0.733222,-0.717515,-0.651443,-0.659257,-0.587309,-0.674026,-0.728391,-0.735508,-1.000000,-0.772693,-0.728583,-0.758271,-0.742462,-0.692784,-0.645456,-0.623699,-0.680606,-0.573991,-0.583883,-0.545477,-0.475575,-0.631250,-0.683051,-0.711362,-0.751572,-0.713325,-0.651282,-0.723407,-0.755270,-0.705148,-0.653974,-0.616691
-0.733157,-0.697982,-0.642174,-0.650711,-0.570224,-0.650390,-0.729723,-0.740337,-1.000000,-0.764086,-0.705685,-0.747717,-0.736632,-0.700894,-0.660950,-0.642852,-0.690209,-0.615283,-0.589780,-0.523817,-0.489515,-0.618118,-0.676502,-0.705749,-0.747566,-0.702771,-0.612777,-0.702973,-0.755016,-0.720540,-0.647047,-0.625915
-0.775734,-0.747990,-0.669856,-0.688663,-0.594766,-0.690632,-0.735669,-0.748915,-1.000000,-0.806885,-0.737161,-0.793671,-0.774899,-0.717806,-0.653158,-0.653244,-0.712065,-0.630378,-0.607891,-0.600467,-0.502332,-0.651637,-0.684262,-0.717879,-0.770988,-0.729969,-0.641482,-0.742631,-0.794044,-0.729648,-0.672452,-0.630828
-0.771345,-0.751642,-0.665735,-0.682713,-0.615462,-0.692217,-0.738420,-0.748707,-1.000000,-0.803897,-0.743367,-0.796044,-0.778318,-0.725091,-0.662329,-0.656516,-0.715624,-0.639137,-0.611056,-0.602522,-0.509955,-0.648919,-0.705479,-0.734780,-0.776702,-0.736528,-0.650931,-0.748076,-0.795245,-0.737331,-0.676367,-0.624372
-0.759089,-0.740031,-0.648642,-0.673377,-0.603718,-0.683430,-0.740116,-0.755021,-1.000000,-0.789240,-0.722706,-0.775631,-0.765667,-0.711851,-0.648614,-0.648367,-0.703942,-0.637320,-0.584584,-0.587240,-0.498576,-0.630111,-0.697680,-0.728041,-0.770245,-0.727385,-0.648542,-0.730786,-0.776752,-0.720035,-0.671998,-0.605284
-0.773823,-0.756345,-0.665578,-0.687209,-0.611383,-0.690951,-0.748128,-0.757055,-1.000000,-0.805064,-0.743725,-0.793646,-0.773851,-0.721105,-0.643605,-0.637946,-0.712932,-0.642541,-0.606659,-0.597781,-0.482577,-0.639642,-0.703862,-0.732687,-0.776117,-0.734644,-0.667248,-0.747815,-0.794824,-0.728033,-0.657904,-0.595804
-0.773563,-0.755050,-0.660872,-0.684849,-0.611951,-0.692066,-0.749290,-0.758950,-1.000000,-0.808518,-0.749119,-0.795823,-0.774252,-0.721393,-0.651114,-0.635361,-0.706923,-0.634348,-0.617000,-0.616493,-0.521185,-0.642959,-0.705283,-0.734202,-0.779766,-0.738367,-0.664236,-0.748464,-0.794403,-0.731259,-0.670087,-0.619537
-0.765530,-0.747146,-0.658245,-0.676037,-0.580725,-0.665893,-0.731559,-0.746864,-1.000000,-0.795589,-0.744673,-0.788709,-0.762686,-0.707133,-0.640384,-0.634997,-0.699689,-0.623600,-0.585195,-0.588444,-0.511195,-0.630816,-0.666668,-0.709338,-0.768462,-0.723187,-0.655473,-0.739804,-0.784707,-0.720769,-0.658293,-0.622018
-0.767948,-0.744669,-0.659354,-0.686808,-0.614728,-0.698670,-0.742370,-0.753936,-1.000000,-0.795152,-0.731423,-0.778895,-0.761612,-0.714336,-0.651948,-0.631201,-0.697784,-0.628757,-0.603532,-0.612105,-0.528935,-0.651133,-0.694283,-0.725169,-0.768306,-0.723796,-0.658024,-0.736382,-0.779703,-0.726469,-0.665178,-0.616662
-0.760780,-0.735096,-0.654522,-0.680088,-0.592614,-0.687150,-0.741533,-0.750195,-1.000000,-0.796252,-0.730042,-0.782697,-0.758435,-0.701576,-0.643508,-0.637705,-0.692661,-0.624956,-0.600930,-0.610473,-0.521180,-0.637273,-0.695288,-0.725626,-0.769267,-0.723093,-0.632236,-0.728226,-0.775308,-0.716555,-0.660405,-0.614347
-0.760560,-0.735563,-0.639415,-0.676399,-0.614664,-0.688185,-0.719745,-0.732685,-1.000000,-0.794581,-0.719285,-0.781063,-0.757675,-0.699043,-0.646146,-0.629030,-0.693580,-0.624676,-0.577834,-0.613768,-0.516428,-0.639533,-0.656125,-0.694742,-0.758859,-0.709475,-0.608484,-0.718869,-0.780381,-0.718855,-0.659317,-0.603412
-0.740492,-0.715388,-0.647527,-0.673383,-0.608169,-0.685861,-0.736396,-0.743182,-1.000000,-0.786189,-0.723612,-0.767918,-0.751123,-0.691751,-0.628404,-0.619187,-0.668555,-0.597575,-0.592588,-0.611543,-0.515792,-0.643250,-0.688969,-0.718098,-0.761770,-0.715156,-0.634251,-0.721724,-0.769382,-0.710685,-0.653686,-0.606950
-0.755160,-0.738272,-0.656911,-0.676153,-0.580189,-0.682365,-0.724368,-0.740198,-1.000000,-0.787685,-0.718628,-0.759794,-0.744214,-0.691304,-0.639223,-0.632955,-0.690894,-0.618499,-0.607624,-0.606327,-0.496605,-0.630383,-0.683227,-0.715089,-0.764622,-0.721036,-0.634846,-0.720270,-0.759583,-0.700477,-0.645216,-0.609592
-0.752269,-0.739271,-0.652328,-0.682470,-0.603698,-0.690969,-0.740943,-0.745505,-1.000000,-0.800297,-0.723445,-0.781368,-0.759929,-0.697293,-0.630730,-0.615382,-0.666656,-0.598774,-0.600834,-0.627890,-0.515281,-0.645201,-0.688551,-0.718723,-0.770104,-0.716894,-0.624632,-0.720579,-0.781196,-0.714748,-0.655370,-0.604523
-0.738361,-0.728250,-0.629339,-0.655811,-0.579884,-0.678052,-0.715189,-0.715476,-1.000000,-0.784816,-0.705318,-0.767565,-0.744920,-0.679811,-0.603222,-0.571793,-0.647198,-0.592542,-0.595339,-0.621140,-0.484776,-0.641970,-0.667266,-0.693698,-0.749576,-0.691517,-0.594357,-0.697489,-0.767613,-0.697102,-0.635796,-0.566318
-0.747731,-0.725287,-0.587119,-0.648880,-0.585308,-0.678321,-0.731342,-0.731692,-1.000000,-0.792030,-0.698224,-0.769976,-0.738466,-0.672551,-0.602917,-0.588498,-0.673441,-0.614671,-0.550738,-0.614628,-0.512748,-0.631793,-0.681200,-0.710624,-0.761761,-0.702469,-0.582559,-0.691883,-0.763459,-0.687769,-0.635661,-0.596235
-0.746251,-0.740709,-0.639671,-0.664980,-0.573039,-0.678976,-0.726260,-0.733259,-1.000000,-0.786351,-0.703934,-0.768511,-0.749627,-0.695928,-0.637774,-0.610357,-0.680511,-0.609464,-0.591243,-0.607855,-0.522156,-0.633602,-0.673276,-0.705494,-0.758117,-0.710238,-0.618202,-0.713014,-0.771593,-0.708042,-0.661743,-0.611307
-0.743049,-0.740960,-0.665686,-0.701235,-0.597955,-0.700718,-0.734400,-0.722932,-1.000000,-0.793734,-0.723605,-0.771145,-0.752450,-0.699605,-0.637627,-0.610162,-0.666272,-0.598135,-0.626163,-0.656372,-0.543145,-0.654678,-0.693444,-0.715444,-0.764962,-0.720120,-0.643339,-0.724591,-0.773344,-0.717394,-0.668895,-0.610274
-0.767767,-0.767099,-0.680546,-0.725560,-0.656808,-0.740641,-0.738690,-0.750904,-1.000000,-0.723050,-0.540069,-0.663292,-0.678468,-0.640763,-0.709618,-0.722922,-0.727676,-0.694822,-0.655864,-0.657321,-0.578252,-0.714351,-0.687517,-0.711519,-0.741925,-0.588558,-0.525264,-0.607067,-0.692896,-0.666411,-0.717003,-0.725993
-0.733130,-0.731825,-0.619288,-0.708454,-0.650021,-0.725215,-0.721692,-0.738177,-1.000000,-0.717597,-0.583962,-0.696166,-0.701951,-0.631103,-0.677235,-0.689318,-0.707823,-0.685559,-0.644935,-0.631645,-0.581399,-0.704442,-0.674151,-0.692892,-0.716137,-0.589812,-0.547107,-0.640930,-0.725838,-0.667588,-0.690455,-0.693081
-0.771449,-0.772149,-0.712697,-0.737238,-0.683136,-0.753779,-0.753188,-0.762155,-1.000000,-0.743792,-0.605370,-0.719967,-0.721903,-0.647967,-0.711629,-0.726454,-0.735764,-0.702149,-0.676019,-0.685038,-0.614241,-0.733953,-0.708416,-0.703656,-0.752212,-0.611159,-0.562319,-0.652480,-0.743139,-0.680564,-0.719439,-0.730037
-0.770956,-0.766512,-0.698847,-0.731683,-0.680597,-0.756811,-0.753888,-0.744840,-1.000000,-0.741788,-0.594985,-0.705371,-0.708042,-0.644551,-0.711458,-0.727101,-0.733000,-0.697013,-0.644539,-0.690690,-0.621416,-0.730492,-0.710932,-0.716877,-0.730743,-0.607034,-0.562198,-0.646986,-0.730199,-0.664204,-0.715316,-0.727649
-0.759311,-0.753667,-0.682177,-0.738345,-0.684925,-0.743664,-0.748210,-0.748435,-1.000000,-0.741129,-0.598802,-0.717065,-0.717185,-0.648376,-0.702384,-0.714282,-0.707633,-0.668057,-0.657382,-0.689185,-0.614432,-0.714273,-0.702622,-0.702374,-0.751705,-0.599880,-0.564279,-0.654252,-0.738241,-0.677385,-0.707488,-0.715357
-0.760013,-0.759365,-0.681945,-0.711510,-0.640762,-0.704203,-0.720490,-0.726797,-1.000000,-0.684935,-0.522775,-0.641133,-0.690129,-0.627359,-0.681451,-0.698676,-0.716176,-0.687968,-0.654252,-0.648515,-0.601676,-0.689530,-0.678792,-0.692166,-0.714530,-0.528887,-0.465401,-0.568277,-0.649676,-0.620864,-0.685358,-0.703503
-0.747095,-0.748030,-0.685059,-0.712170,-0.651047,-0.720562,-0.720897,-0.740531,-1.000000,-0.726102,-0.590566,-0.700289,-0.692734,-0.596092,-0.665357,-0.688058,-0.709960,-0.693167,-0.667805,-0.670707,-0.614596,-0.696273,-0.678094,-0.693875,-0.735882,-0.587539,-0.531231,-0.622791,-0.697917,-0.626744,-0.675505,-0.693848
-0.734989,-0.744539,-0.663322,-0.677491,-0.638549,-0.687415,-0.681987,-0.707069,-1.000000,-0.614728,-0.504088,-0.586487,-0.595055,-0.551538,-0.630616,-0.652119,-0.701510,-0.687288,-0.630501,-0.636566,-0.566129,-0.644819,-0.600701,-0.626605,-0.661054,-0.548762,-0.481836,-0.559922,-0.651074,-0.613079,-0.642019,-0.654275
-0.757548,-0.761445,-0.692890,-0.693350,-0.640142,-0.722679,-0.723884,-0.737510,-1.000000,-0.717430,-0.592838,-0.691648,-0.689987,-0.631727,-0.687240,-0.701714,-0.718757,-0.694265,-0.654218,-0.621441,-0.585461,-0.681560,-0.674973,-0.692477,-0.727523,-0.600104,-0.536630,-0.609023,-0.682100,-0.637056,-0.686748,-0.700618
-0.754859,-0.754348,-0.686990,-0.700262,-0.656341,-0.719967,-0.721197,-0.744555,-1.000000,-0.733821,-0.609637,-0.713255,-0.690957,-0.628077,-0.687425,-0.701093,-0.705263,-0.677321,-0.655309,-0.648414,-0.590547,-0.696350,-0.678843,-0.695307,-0.731266,-0.616856,-0.559635,-0.629477,-0.710180,-0.647554,-0.691100,-0.705010
-0.766316,-0.768201,-0.694654,-0.709273,-0.663070,-0.722924,-0.726920,-0.745786,-1.000000,-0.712047,-0.571363,-0.669663,-0.669112,-0.633422,-0.691603,-0.706293,-0.724564,-0.699735,-0.663600,-0.643591,-0.599586,-0.695467,-0.671096,-0.687060,-0.724504,-0.604689,-0.513393,-0.568879,-0.674221,-0.638266,-0.690093,-0.704752
-0.765935,-0.765800,-0.701989,-0.716348,-0.668884,-0.733188,-0.732777,-0.751880,-1.000000,-0.726936,-0.603045,-0.695651,-0.692463,-0.624545,-0.686103,-0.704409,-0.724770,-0.698327,-0.663314,-0.654244,-0.609177,-0.704918,-0.677298,-0.692222,-0.728673,-0.615558,-0.557101,-0.627359,-0.701578,-0.644077,-0.688455,-0.704205
-0.766833,-0.764512,-0.690446,-0.710678,-0.663324,-0.726828,-0.731322,-0.740121,-1.000000,-0.722445,-0.586150,-0.684970,-0.680643,-0.629216,-0.694592,-0.709878,-0.722862,-0.700053,-0.639080,-0.653371,-0.598790,-0.700418,-0.689865,-0.698967,-0.729563,-0.607831,-0.506649,-0.589609,-0.700165,-0.651622,-0.696040,-0.710383
-0.755613,-0.756480,-0.690533,-0.719750,-0.655083,-0.716358,-0.720158,-0.731747,-1.000000,-0.725268,-0.590657,-0.691322,-0.684271,-0.622457,-0.681305,-0.696400,-0.711572,-0.690807,-0.659213,-0.672122,-0.545684,-0.696732,-0.674449,-0.685482,-0.718089,-0.591835,-0.529004,-0.602804,-0.697030,-0.620509,-0.680179,-0.696007
-0.759291,-0.760478,-0.691052,-0.723357,-0.660240,-0.721879,-0.729345,-0.745547,-1.000000,-0.724149,-0.592552,-0.683993,-0.686751,-0.631724,-0.684264,-0.699452,-0.715126,-0.695274,-0.666883,-0.676720,-0.598786,-0.703520,-0.683884,-0.694116,-0.718278,-0.602810,-0.527034,-0.604978,-0.685905,-0.622118,-0.681571,-0.698781
-0.750333,-0.752461,-0.687490,-0.715374,-0.648916,-0.721469,-0.731678,-0.746644,-1.000000,-0.730098,-0.605076,-0.702084,-0.692435,-0.641125,-0.676641,-0.689251,-0.701317,-0.682057,-0.651159,-0.665511,-0.591713,-0.698846,-0.685393,-0.697134,-0.725412,-0.599021,-0.527479,-0.611152,-0.704889,-0.630452,-0.674757,-0.689034
-0.758869,-0.759240,-0.690349,-0.719547,-0.645664,-0.719450,-0.727686,-0.729027,-1.000000,-0.727019,-0.610811,-0.698439,-0.696372,-0.639149,-0.683558,-0.698396,-0.715772,-0.695653,-0.656922,-0.662579,-0.593490,-0.699061,-0.673323,-0.693319,-0.717770,-0.620103,-0.547803,-0.607920,-0.701984,-0.632895,-0.681130,-0.696595
-0.743295,-0.742110,-0.676970,-0.714725,-0.635637,-0.707925,-0.714263,-0.729884,-1.000000,-0.718084,-0.610744,-0.702336,-0.687659,-0.618122,-0.667931,-0.683922,-0.699096,-0.679909,-0.648786,-0.658429,-0.589116,-0.685954,-0.652004,-0.675709,-0.714950,-0.586699,-0.551217,-0.625175,-0.702745,-0.621865,-0.668087,-0.685176
-0.748053,-0.747798,-0.669575,-0.705195,-0.646539,-0.705175,-0.721826,-0.732646,-1.000000,-0.710065,-0.602955,-0.700517,-0.690209,-0.626022,-0.669180,-0.683225,-0.701460,-0.681457,-0.639924,-0.657704,-0.582377,-0.685764,-0.660006,-0.681759,-0.711513,-0.576752,-0.523197,-0.616560,-0.703935,-0.617284,-0.667142,-0.685789
-0.751997,-0.752235,-0.678464,-0.721208,-0.638416,-0.717796,-0.715593,-0.733510,-1.000000,-0.719255,-0.601035,-0.704425,-0.696482,-0.632431,-0.678024,-0.693404,-0.712600,-0.689852,-0.642948,-0.670587,-0.595204,-0.696773,-0.663269,-0.679407,-0.717865,-0.604669,-0.547137,-0.624882,-0.691586,-0.615990,-0.674378,-0.693587
-0.762224,-0.762833,-0.695198,-0.735392,-0.664135,-0.723948,-0.726348,-0.734647,-1.000000,-0.724427,-0.612614,-0.703913,-0.703146,-0.637854,-0.684161,-0.699866,-0.718268,-0.690126,-0.661674,-0.677880,-0.596704,-0.697126,-0.673464,-0.674077,-0.708920,-0.606558,-0.558081,-0.632892,-0.707601,-0.632548,-0.683136,-0.700832
-0.751670,-0.752235,-0.688787,-0.730953,-0.659856,-0.711230,-0.691604,-0.720635,-1.000000,-0.642793,-0.497222,-0.631031,-0.691973,-0.626430,-0.678931,-0.693764,-0.711556,-0.685974,-0.662612,-0.675416,-0.582980,-0.686206,-0.639963,-0.668368,-0.688048,-0.524665,-0.485249,-0.569351,-0.664725,-0.623423,-0.676512,-0.691118
-0.755993,-0.750153,-0.674005,-0.715973,-0.649616,-0.703811,-0.694157,-0.712505,-1.000000,-0.721284,-0.640438,-0.710422,-0.704846,-0.645452,-0.686986,-0.700761,-0.711925,-0.678997,-0.658379,-0.664326,-0.611672,-0.681313,-0.654668,-0.675406,-0.713755,-0.606954,-0.565366,-0.625098,-0.716764,-0.646799,-0.690063,-0.700613
-0.752403,-0.753049,-0.689680,-0.731375,-0.660349,-0.712942,-0.702480,-0.724895,-1.000000,-0.719715,-0.623713,-0.721735,-0.708777,-0.647133,-0.683383,-0.696537,-0.705667,-0.675580,-0.658193,-0.674009,-0.607126,-0.684927,-0.641159,-0.676086,-0.717374,-0.601631,-0.540966,-0.623869,-0.703628,-0.632456,-0.683677,-0.696719
-0.743632,-0.741910,-0.671273,-0.712566,-0.622737,-0.693451,-0.683433,-0.712670,-1.000000,-0.719795,-0.633092,-0.714451,-0.702516,-0.643756,-0.678507,-0.689817,-0.698817,-0.670849,-0.637430,-0.655943,-0.558326,-0.672628,-0.630881,-0.662266,-0.700581,-0.591507,-0.556905,-0.625674,-0.721771,-0.647376,-0.679072,-0.689700
-0.734485,-0.735280,-0.669813,-0.717576,-0.637690,-0.691535,-0.675332,-0.710092,-1.000000,-0.713955,-0.622225,-0.704709,-0.680319,-0.618605,-0.659784,-0.672691,-0.688680,-0.664524,-0.644359,-0.651808,-0.588836,-0.669800,-0.617894,-0.651260,-0.696524,-0.576609,-0.530915,-0.598836,-0.699701,-0.631378,-0.660364,-0.672214
