0,1,2,3,4,5,6,7,8,9,10,11,12,13,14,15,16,17,18,19,20,21,22,23,24,25,26,27,28,29,30,31
-1.000000,-0.958742,-0.958829,-0.958467,-0.957304,-0.954944,-0.949241,-0.943952,-0.942890,-0.932977,-0.916789,-0.869887,-0.907287,-0.953106,-0.959593,-0.958912,-1.000000,-0.960624,-0.961548,-0.961293,-0.960162,-0.957779,-0.952917,-0.946006,-0.924905,-0.933241,-0.919250,-0.878214,-0.919471,-0.956581,-0.961949,-0.961673
-1.000000,-0.958608,-0.958706,-0.958004,-0.956618,-0.954456,-0.949529,-0.944722,-0.941990,-0.932741,-0.916371,-0.873375,-0.906688,-0.952048,-0.958699,-0.958473,-1.000000,-0.960795,-0.961504,-0.960787,-0.959463,-0.957318,-0.953422,-0.945791,-0.919527,-0.932089,-0.917863,-0.877543,-0.918291,-0.955861,-0.961565,-0.961444
-1.000000,-0.957254,-0.957399,-0.956707,-0.955294,-0.953040,-0.948166,-0.944474,-0.943161,-0.933207,-0.916390,-0.875301,-0.905514,-0.950822,-0.957854,-0.957458,-1.000000,-0.959613,-0.960323,-0.959693,-0.958250,-0.956082,-0.952345,-0.946137,-0.923821,-0.933596,-0.918484,-0.878889,-0.916363,-0.954612,-0.960787,-0.960572
-1.000000,-0.956242,-0.956497,-0.955936,-0.954586,-0.952539,-0.947763,-0.943311,-0.943779,-0.932480,-0.920254,-0.877187,-0.907799,-0.951120,-0.956809,-0.956235,-1.000000,-0.958569,-0.959281,-0.958578,-0.957382,-0.955303,-0.951771,-0.943874,-0.920766,-0.933766,-0.918326,-0.880894,-0.920384,-0.955254,-0.959725,-0.959284
-1.000000,-0.956588,-0.956549,-0.955725,-0.954224,-0.951887,-0.945833,-0.941645,-0.939302,-0.931987,-0.918870,-0.869008,-0.904553,-0.950505,-0.957128,-0.956688,-1.000000,-0.958732,-0.959228,-0.958319,-0.956828,-0.955043,-0.951407,-0.943064,-0.920334,-0.931202,-0.919019,-0.866993,-0.916622,-0.954870,-0.959997,-0.959637
-1.000000,-0.955385,-0.955566,-0.954861,-0.953426,-0.951063,-0.945415,-0.942831,-0.944979,-0.932806,-0.917719,-0.864544,-0.896282,-0.947667,-0.955189,-0.955263,-1.000000,-0.957579,-0.958394,-0.957601,-0.956354,-0.954459,-0.950846,-0.943167,-0.919663,-0.932522,-0.913476,-0.872475,-0.912263,-0.951937,-0.957772,-0.957925
-1.000000,-0.951452,-0.952311,-0.951762,-0.950419,-0.948412,-0.943638,-0.938583,-0.944215,-0.931490,-0.912441,-0.849561,-0.881491,-0.940710,-0.949810,-0.950108,-1.000000,-0.953929,-0.955357,-0.954702,-0.953273,-0.951657,-0.948964,-0.942606,-0.924963,-0.929113,-0.909576,-0.863497,-0.898449,-0.944684,-0.952172,-0.952803
-1.000000,-0.952730,-0.952730,-0.951592,-0.949640,-0.946882,-0.942159,-0.939745,-0.942130,-0.929080,-0.913397,-0.864401,-0.896708,-0.946318,-0.953013,-0.952331,-1.000000,-0.955465,-0.956179,-0.954944,-0.953149,-0.950671,-0.946908,-0.941145,-0.924260,-0.930176,-0.912138,-0.871726,-0.910652,-0.950030,-0.955705,-0.955722
-1.000000,-0.954445,-0.954753,-0.953923,-0.952400,-0.950152,-0.945174,-0.942575,-0.944708,-0.931877,-0.915956,-0.867690,-0.896926,-0.947343,-0.954359,-0.953837,-1.000000,-0.956932,-0.957635,-0.956758,-0.955194,-0.953298,-0.949763,-0.942800,-0.925621,-0.931354,-0.913550,-0.870898,-0.911878,-0.951399,-0.957042,-0.957017
-1.000000,-0.955210,-0.955590,-0.954821,-0.953283,-0.950922,-0.946025,-0.943634,-0.943690,-0.932038,-0.916219,-0.870060,-0.904375,-0.949978,-0.955704,-0.954890,-1.000000,-0.957666,-0.958408,-0.957566,-0.956048,-0.954146,-0.950802,-0.943781,-0.925993,-0.933580,-0.917729,-0.876707,-0.916649,-0.953454,-0.958232,-0.957969
-1.000000,-0.953866,-0.954317,-0.953662,-0.952238,-0.950334,-0.946118,-0.943972,-0.940956,-0.930613,-0.917321,-0.871021,-0.903599,-0.949250,-0.954798,-0.953847,-1.000000,-0.956473,-0.957284,-0.956457,-0.954987,-0.953430,-0.950837,-0.944020,-0.925672,-0.931456,-0.912973,-0.873222,-0.914902,-0.952636,-0.957313,-0.956852
-1.000000,-0.953424,-0.953539,-0.952668,-0.950966,-0.948699,-0.945129,-0.942908,-0.942186,-0.929139,-0.914929,-0.865358,-0.897845,-0.946683,-0.953206,-0.952814,-1.000000,-0.955856,-0.956409,-0.955366,-0.953879,-0.952283,-0.950313,-0.943108,-0.920196,-0.929092,-0.906818,-0.867491,-0.911704,-0.950103,-0.955723,-0.955956
-1.000000,-0.951479,-0.952698,-0.952275,-0.950737,-0.948376,-0.943509,-0.941894,-0.939413,-0.929973,-0.915447,-0.870082,-0.904099,-0.947216,-0.952251,-0.951104,-1.000000,-0.954327,-0.955488,-0.954953,-0.953826,-0.952053,-0.949335,-0.941668,-0.922745,-0.930050,-0.912205,-0.874998,-0.916023,-0.951302,-0.955331,-0.954570
-1.000000,-0.952371,-0.953738,-0.953560,-0.951778,-0.948513,-0.940455,-0.939442,-0.941929,-0.930692,-0.912255,-0.849690,-0.900910,-0.947470,-0.953208,-0.951739,-1.000000,-0.955253,-0.956825,-0.956583,-0.955032,-0.952545,-0.947592,-0.940022,-0.918939,-0.929060,-0.902799,-0.854975,-0.912837,-0.951533,-0.956208,-0.955474
-1.000000,-0.954795,-0.955279,-0.954671,-0.953090,-0.951473,-0.947253,-0.943640,-0.943949,-0.934049,-0.917965,-0.868772,-0.904149,-0.949504,-0.955117,-0.954316,-1.000000,-0.957382,-0.957962,-0.957069,-0.955619,-0.954503,-0.951974,-0.944765,-0.928145,-0.931652,-0.913480,-0.869975,-0.915692,-0.952434,-0.957551,-0.957322
-1.000000,-0.954570,-0.955390,-0.955060,-0.953615,-0.951455,-0.946208,-0.945818,-0.945352,-0.933880,-0.917707,-0.872308,-0.902686,-0.948631,-0.954627,-0.953858,-1.000000,-0.957077,-0.958016,-0.957596,-0.956574,-0.954982,-0.951481,-0.945402,-0.928587,-0.932767,-0.915028,-0.877026,-0.913671,-0.951858,-0.957048,-0.956807
-1.000000,-0.952734,-0.953361,-0.953056,-0.951690,-0.949418,-0.944989,-0.944482,-0.942095,-0.931186,-0.916917,-0.869763,-0.898046,-0.945909,-0.952682,-0.952132,-1.000000,-0.955508,-0.956287,-0.955622,-0.954266,-0.952412,-0.949454,-0.943658,-0.928846,-0.933172,-0.913356,-0.876432,-0.912665,-0.950646,-0.955720,-0.955364
-1.000000,-0.955890,-0.956649,-0.956222,-0.954647,-0.952116,-0.946685,-0.947111,-0.944836,-0.936221,-0.916858,-0.864329,-0.901026,-0.947723,-0.954471,-0.954494,-1.000000,-0.958375,-0.959236,-0.958382,-0.956494,-0.954340,-0.950731,-0.946270,-0.932413,-0.932896,-0.913857,-0.870435,-0.909768,-0.950257,-0.956495,-0.957294
-1.000000,-0.955000,-0.955964,-0.955740,-0.954531,-0.952581,-0.946555,-0.946375,-0.942586,-0.934504,-0.912463,-0.865962,-0.898666,-0.945856,-0.953407,-0.953688,-1.000000,-0.957703,-0.958885,-0.958514,-0.957387,-0.956084,-0.952797,-0.947432,-0.932467,-0.933137,-0.912835,-0.873067,-0.910900,-0.949551,-0.955721,-0.956489
-1.000000,-0.953767,-0.954720,-0.954354,-0.952738,-0.950375,-0.944799,-0.943910,-0.943092,-0.931381,-0.911359,-0.865246,-0.898596,-0.944988,-0.951901,-0.952250,-1.000000,-0.956253,-0.957325,-0.956906,-0.955476,-0.953832,-0.950555,-0.944786,-0.929068,-0.930087,-0.911347,-0.873390,-0.911503,-0.948779,-0.954419,-0.954967
-1.000000,-0.952535,-0.953829,-0.953685,-0.952639,-0.950986,-0.946258,-0.943815,-0.939071,-0.923301,-0.895679,-0.852990,-0.888786,-0.937023,-0.947069,-0.949519,-1.000000,-0.954837,-0.956528,-0.956102,-0.955402,-0.953798,-0.950119,-0.944671,-0.927849,-0.925862,-0.902779,-0.865709,-0.898239,-0.940740,-0.949446,-0.952021
-1.000000,-0.957334,-0.958482,-0.958436,-0.957345,-0.955144,-0.948280,-0.947253,-0.944533,-0.935666,-0.921574,-0.865284,-0.898780,-0.948755,-0.955606,-0.955841,-1.000000,-0.959549,-0.960772,-0.960590,-0.959780,-0.958682,-0.954636,-0.947316,-0.930121,-0.935121,-0.921330,-0.878918,-0.912779,-0.951617,-0.957473,-0.958325
-1.000000,-0.958958,-0.959631,-0.959297,-0.958143,-0.955718,-0.949357,-0.949647,-0.940588,-0.935103,-0.918909,-0.872886,-0.905115,-0.949938,-0.956692,-0.957463,-1.000000,-0.961101,-0.961927,-0.961543,-0.960613,-0.958886,-0.954596,-0.948429,-0.929792,-0.934502,-0.917261,-0.883375,-0.917720,-0.953036,-0.958478,-0.959693
-1.000000,-0.956222,-0.957127,-0.956517,-0.955276,-0.952655,-0.946217,-0.944988,-0.937541,-0.933936,-0.918524,-0.872843,-0.902089,-0.946637,-0.953812,-0.954490,-1.000000,-0.958646,-0.959781,-0.959430,-0.958477,-0.956072,-0.951916,-0.945412,-0.927792,-0.932675,-0.918738,-0.884660,-0.914038,-0.949798,-0.955953,-0.957239
-1.000000,-0.956653,-0.957452,-0.957424,-0.956521,-0.954879,-0.949366,-0.947390,-0.942867,-0.935705,-0.919287,-0.866602,-0.896669,-0.946400,-0.954768,-0.955581,-1.000000,-0.958099,-0.959671,-0.959561,-0.958826,-0.957548,-0.954058,-0.946597,-0.929336,-0.934560,-0.916350,-0.879385,-0.906729,-0.948964,-0.956304,-0.957612
-1.000000,-0.954607,-0.955849,-0.955279,-0.953557,-0.949551,-0.941595,-0.936917,-0.941058,-0.922186,-0.912137,-0.858834,-0.899264,-0.943945,-0.951651,-0.952781,-1.000000,-0.956611,-0.958080,-0.958162,-0.956236,-0.952438,-0.946463,-0.937367,-0.918242,-0.927511,-0.915806,-0.875928,-0.910258,-0.946802,-0.953714,-0.955135
-1.000000,-0.955671,-0.956602,-0.956364,-0.955523,-0.952730,-0.945310,-0.945307,-0.942527,-0.931972,-0.915425,-0.861255,-0.897656,-0.943639,-0.952269,-0.953637,-1.000000,-0.957888,-0.959298,-0.959194,-0.958234,-0.956265,-0.951066,-0.940999,-0.922170,-0.929854,-0.913843,-0.873929,-0.909779,-0.947500,-0.954374,-0.956054
-1.000000,-0.956184,-0.957052,-0.956954,-0.955905,-0.952061,-0.942309,-0.939650,-0.933026,-0.930030,-0.915848,-0.863433,-0.898296,-0.945600,-0.954058,-0.955158,-1.000000,-0.958349,-0.959889,-0.959756,-0.958526,-0.955179,-0.947864,-0.940043,-0.922921,-0.930378,-0.916026,-0.878791,-0.909486,-0.949116,-0.956344,-0.957628
-1.000000,-0.953003,-0.953864,-0.954090,-0.953465,-0.950767,-0.945179,-0.946989,-0.949091,-0.936487,-0.921621,-0.869283,-0.897413,-0.943902,-0.951695,-0.952182,-1.000000,-0.956042,-0.957366,-0.957236,-0.955981,-0.953427,-0.948928,-0.943472,-0.926871,-0.934979,-0.919446,-0.879393,-0.909052,-0.948119,-0.954464,-0.955043
-1.000000,-0.957435,-0.958062,-0.957847,-0.956970,-0.954246,-0.948602,-0.948627,-0.946616,-0.937899,-0.923245,-0.865994,-0.897844,-0.946428,-0.954889,-0.956102,-1.000000,-0.959777,-0.960775,-0.960502,-0.959257,-0.956626,-0.952078,-0.945649,-0.928312,-0.934809,-0.918139,-0.875367,-0.908413,-0.949596,-0.956877,-0.958518
-1.000000,-0.957501,-0.958359,-0.958130,-0.957126,-0.954469,-0.948626,-0.945251,-0.949769,-0.936225,-0.922527,-0.869930,-0.900781,-0.946234,-0.954176,-0.955694,-1.000000,-0.959862,-0.960919,-0.960666,-0.959496,-0.956574,-0.951817,-0.944793,-0.929407,-0.935001,-0.919080,-0.880342,-0.912890,-0.949208,-0.955945,-0.957918
-1.000000,-0.960352,-0.960720,-0.960354,-0.959164,-0.956634,-0.951937,-0.949339,-0.949085,-0.939598,-0.924096,-0.864827,-0.897977,-0.948303,-0.957800,-0.959311,-1.000000,-0.962410,-0.963094,-0.962485,-0.961152,-0.958469,-0.953798,-0.948696,-0.934151,-0.936610,-0.920955,-0.875498,-0.908630,-0.951462,-0.959824,-0.961599
-1.000000,-0.957508,-0.958151,-0.957851,-0.956581,-0.953622,-0.947700,-0.945156,-0.950118,-0.930279,-0.916181,-0.869351,-0.896995,-0.947401,-0.956382,-0.957257,-1.000000,-0.959724,-0.960535,-0.959996,-0.958285,-0.955368,-0.950271,-0.942442,-0.926049,-0.929901,-0.917159,-0.875612,-0.909226,-0.951153,-0.958718,-0.959553
-1.000000,-0.957538,-0.958475,-0.958646,-0.957957,-0.956000,-0.952377,-0.951040,-0.950315,-0.939843,-0.926204,-0.880155,-0.894182,-0.944638,-0.954137,-0.955532,-1.000000,-0.959852,-0.960947,-0.960866,-0.959674,-0.957641,-0.954316,-0.948773,-0.932651,-0.938425,-0.925881,-0.887792,-0.907704,-0.948635,-0.956566,-0.958046
-1.000000,-0.957508,-0.958605,-0.958281,-0.957648,-0.954953,-0.948400,-0.944877,-0.949646,-0.935596,-0.923651,-0.884617,-0.904836,-0.946915,-0.954884,-0.956211,-1.000000,-0.959742,-0.960984,-0.960960,-0.959830,-0.957141,-0.952658,-0.946164,-0.929829,-0.935627,-0.921334,-0.885501,-0.914193,-0.949543,-0.956864,-0.958105
-1.000000,-0.960245,-0.961359,-0.961473,-0.960825,-0.957626,-0.949807,-0.942710,-0.949225,-0.931706,-0.917830,-0.860107,-0.893626,-0.943829,-0.954862,-0.957768,-1.000000,-0.962427,-0.963645,-0.963634,-0.962682,-0.959478,-0.953063,-0.945304,-0.921606,-0.930951,-0.916917,-0.874910,-0.907226,-0.949284,-0.958053,-0.960532
-1.000000,-0.961240,-0.961702,-0.961604,-0.960905,-0.958208,-0.951177,-0.947345,-0.950048,-0.936103,-0.920446,-0.876366,-0.900909,-0.947598,-0.957115,-0.959418,-1.000000,-0.963292,-0.964383,-0.964290,-0.963296,-0.960341,-0.954053,-0.947524,-0.928511,-0.934277,-0.920377,-0.882131,-0.911639,-0.951580,-0.959723,-0.961919
-1.000000,-0.960956,-0.961459,-0.961250,-0.960510,-0.957521,-0.950435,-0.946810,-0.952352,-0.938896,-0.921734,-0.869969,-0.894720,-0.945078,-0.955980,-0.959121,-1.000000,-0.962831,-0.963801,-0.963625,-0.962521,-0.959395,-0.953613,-0.947439,-0.928594,-0.935914,-0.922851,-0.883425,-0.905452,-0.948880,-0.958188,-0.960966
-1.000000,-0.960752,-0.961188,-0.960967,-0.960215,-0.957512,-0.950644,-0.946284,-0.951504,-0.939261,-0.925173,-0.883582,-0.901149,-0.947365,-0.956877,-0.959376,-1.000000,-0.962756,-0.963222,-0.962812,-0.962132,-0.959530,-0.954192,-0.947372,-0.928918,-0.938162,-0.928673,-0.892272,-0.913632,-0.951548,-0.959397,-0.961443
-1.000000,-0.960822,-0.961210,-0.961158,-0.960470,-0.957713,-0.950804,-0.946761,-0.953044,-0.937696,-0.924129,-0.883650,-0.901453,-0.947387,-0.956967,-0.959261,-1.000000,-0.963074,-0.963995,-0.963761,-0.962903,-0.960036,-0.954288,-0.947958,-0.929985,-0.936916,-0.927080,-0.881285,-0.911877,-0.951191,-0.959470,-0.961701
-1.000000,-0.961657,-0.962317,-0.962201,-0.961456,-0.958345,-0.951123,-0.946875,-0.951354,-0.939296,-0.924580,-0.880840,-0.894873,-0.947819,-0.958335,-0.960470,-1.000000,-0.963956,-0.964935,-0.964720,-0.963596,-0.960383,-0.953962,-0.947119,-0.929659,-0.937311,-0.927518,-0.883238,-0.909389,-0.951977,-0.960631,-0.962838
-1.000000,-0.960843,-0.961386,-0.961279,-0.960588,-0.957838,-0.951906,-0.945822,-0.946970,-0.933298,-0.915618,-0.867476,-0.896543,-0.945179,-0.956135,-0.959038,-1.000000,-0.962729,-0.964030,-0.963930,-0.962647,-0.959140,-0.953504,-0.947008,-0.927642,-0.927230,-0.917477,-0.872990,-0.906122,-0.948560,-0.958037,-0.960991
-1.000000,-0.959699,-0.960058,-0.959853,-0.958950,-0.956178,-0.950969,-0.946469,-0.949743,-0.931772,-0.912195,-0.868085,-0.894586,-0.943741,-0.954728,-0.957896,-1.000000,-0.961994,-0.962930,-0.962610,-0.961283,-0.957722,-0.951929,-0.945041,-0.925253,-0.927230,-0.914517,-0.857359,-0.903114,-0.946968,-0.957053,-0.960083
-1.000000,-0.959494,-0.959515,-0.959101,-0.958510,-0.956127,-0.949829,-0.945024,-0.950552,-0.934954,-0.917312,-0.876715,-0.896361,-0.944685,-0.955118,-0.957984,-1.000000,-0.961544,-0.962240,-0.961995,-0.960910,-0.958063,-0.952500,-0.946061,-0.928115,-0.932126,-0.921788,-0.878280,-0.906273,-0.948643,-0.957353,-0.960069
-1.000000,-0.961247,-0.961530,-0.961132,-0.960434,-0.958139,-0.951601,-0.944192,-0.950880,-0.934833,-0.917460,-0.878756,-0.900926,-0.946312,-0.956244,-0.959316,-1.000000,-0.963167,-0.964171,-0.963941,-0.962354,-0.959683,-0.954048,-0.946497,-0.926978,-0.931581,-0.920453,-0.879032,-0.909911,-0.950055,-0.958497,-0.961295
-1.000000,-0.963114,-0.963600,-0.963464,-0.962819,-0.959927,-0.951859,-0.943881,-0.944992,-0.937394,-0.922135,-0.884826,-0.905968,-0.949483,-0.958789,-0.961319,-1.000000,-0.965153,-0.966137,-0.966145,-0.965154,-0.962088,-0.955880,-0.947638,-0.928893,-0.936258,-0.925302,-0.884519,-0.915021,-0.952879,-0.960827,-0.963348
-1.000000,-0.963363,-0.963541,-0.963465,-0.962904,-0.959820,-0.952956,-0.946584,-0.951316,-0.937715,-0.922805,-0.886459,-0.904087,-0.949649,-0.959198,-0.961926,-1.000000,-0.965276,-0.966153,-0.966149,-0.965172,-0.962075,-0.955973,-0.948529,-0.928945,-0.936024,-0.924649,-0.884379,-0.913148,-0.953051,-0.961360,-0.963893
-1.000000,-0.963673,-0.963953,-0.963778,-0.963095,-0.960218,-0.953316,-0.947252,-0.952817,-0.938213,-0.923013,-0.878736,-0.897454,-0.949107,-0.959379,-0.962146,-1.000000,-0.965573,-0.966403,-0.966312,-0.965222,-0.962090,-0.956126,-0.948936,-0.928629,-0.936607,-0.924411,-0.879294,-0.909776,-0.952613,-0.961466,-0.964073
-1.000000,-0.963490,-0.963963,-0.963892,-0.963355,-0.960309,-0.953311,-0.946302,-0.950438,-0.937421,-0.921056,-0.874461,-0.899467,-0.948427,-0.959048,-0.961911,-1.000000,-0.965398,-0.966446,-0.966573,-0.965514,-0.962387,-0.956355,-0.948954,-0.926587,-0.932621,-0.919085,-0.868610,-0.906405,-0.950440,-0.960684,-0.963605
-1.000000,-0.964332,-0.964660,-0.964514,-0.963861,-0.960741,-0.953252,-0.947573,-0.952189,-0.939352,-0.924401,-0.888598,-0.908609,-0.952201,-0.961017,-0.963137,-1.000000,-0.966415,-0.967390,-0.967363,-0.966262,-0.963000,-0.956741,-0.950038,-0.932191,-0.936733,-0.923498,-0.886953,-0.917427,-0.955219,-0.963026,-0.965052
-1.000000,-0.961642,-0.961673,-0.961287,-0.960510,-0.957421,-0.950402,-0.945115,-0.948610,-0.936573,-0.921381,-0.880627,-0.903092,-0.949232,-0.958596,-0.960408,-1.000000,-0.963739,-0.964313,-0.964075,-0.962765,-0.959455,-0.953534,-0.946430,-0.928865,-0.935369,-0.923201,-0.882651,-0.913128,-0.952416,-0.960500,-0.962600
-1.000000,-0.963944,-0.964190,-0.964015,-0.963508,-0.960594,-0.953225,-0.946773,-0.954332,-0.939002,-0.921163,-0.881430,-0.900346,-0.950930,-0.960492,-0.962746,-1.000000,-0.966066,-0.966945,-0.966924,-0.965934,-0.962805,-0.956752,-0.950643,-0.934111,-0.937676,-0.925048,-0.890709,-0.917137,-0.954922,-0.962691,-0.964751
-1.000000,-0.965369,-0.965515,-0.965193,-0.964358,-0.960840,-0.952867,-0.947719,-0.953138,-0.940909,-0.926787,-0.891744,-0.914273,-0.955885,-0.963011,-0.964546,-1.000000,-0.967772,-0.968340,-0.967987,-0.966428,-0.963041,-0.957173,-0.950794,-0.932877,-0.937803,-0.928817,-0.893608,-0.925133,-0.958933,-0.965207,-0.966616
-1.000000,-0.964052,-0.964718,-0.964616,-0.964078,-0.961099,-0.954454,-0.947570,-0.952975,-0.941121,-0.924779,-0.891174,-0.916797,-0.955115,-0.961667,-0.963086,-1.000000,-0.966400,-0.967551,-0.967605,-0.966548,-0.963452,-0.957541,-0.951195,-0.932090,-0.940429,-0.928476,-0.893975,-0.925340,-0.956684,-0.962993,-0.964937
-1.000000,-0.965814,-0.965919,-0.965583,-0.964928,-0.961934,-0.953441,-0.947556,-0.953859,-0.942737,-0.927823,-0.895536,-0.914735,-0.954881,-0.962736,-0.964844,-1.000000,-0.968018,-0.968649,-0.968355,-0.967285,-0.964446,-0.958364,-0.949843,-0.933635,-0.941157,-0.928021,-0.892312,-0.923875,-0.958161,-0.965012,-0.966705
-1.000000,-0.967153,-0.967166,-0.966513,-0.965089,-0.961567,-0.951575,-0.946773,-0.949495,-0.942077,-0.925596,-0.895400,-0.915833,-0.956248,-0.964033,-0.966187,-1.000000,-0.969428,-0.969601,-0.968832,-0.967439,-0.963636,-0.956720,-0.949605,-0.930162,-0.940302,-0.929461,-0.894301,-0.925159,-0.958783,-0.965903,-0.967898
-1.000000,-0.966350,-0.966673,-0.966171,-0.965285,-0.963028,-0.955660,-0.949296,-0.951500,-0.943286,-0.929096,-0.895107,-0.917752,-0.957291,-0.964507,-0.965882,-1.000000,-0.968651,-0.969153,-0.968784,-0.967569,-0.965435,-0.960090,-0.951857,-0.933713,-0.942649,-0.931988,-0.894723,-0.927097,-0.959987,-0.966758,-0.967931
-1.000000,-0.966499,-0.966467,-0.966045,-0.964997,-0.962008,-0.954233,-0.948069,-0.947152,-0.942925,-0.929612,-0.898848,-0.919033,-0.957450,-0.964311,-0.965899,-1.000000,-0.968602,-0.969122,-0.968746,-0.967720,-0.964402,-0.957229,-0.949184,-0.929576,-0.943201,-0.932304,-0.896514,-0.927759,-0.959961,-0.966337,-0.967752
-1.000000,-0.966513,-0.966625,-0.965992,-0.965006,-0.962237,-0.955039,-0.949185,-0.953072,-0.942519,-0.928297,-0.897726,-0.914307,-0.956895,-0.963998,-0.965678,-1.000000,-0.968502,-0.968806,-0.968181,-0.967353,-0.964716,-0.959017,-0.952216,-0.933978,-0.942162,-0.931582,-0.893980,-0.923674,-0.959316,-0.965924,-0.967477
-1.000000,-0.964336,-0.965203,-0.964706,-0.963862,-0.961638,-0.954569,-0.948366,-0.953945,-0.941906,-0.927567,-0.898739,-0.919436,-0.955909,-0.962250,-0.962897,-1.000000,-0.966460,-0.967526,-0.967164,-0.966410,-0.964180,-0.958923,-0.952368,-0.934229,-0.941485,-0.930444,-0.895555,-0.928569,-0.958985,-0.964514,-0.965578
-1.000000,-0.968371,-0.968435,-0.967837,-0.966889,-0.964454,-0.956846,-0.950947,-0.954684,-0.944883,-0.931226,-0.901750,-0.921454,-0.957725,-0.964541,-0.966908,-1.000000,-0.970139,-0.970599,-0.970204,-0.969336,-0.967033,-0.961071,-0.954022,-0.936487,-0.943877,-0.931688,-0.896775,-0.929974,-0.959737,-0.966293,-0.968421
-1.000000,-0.965807,-0.965950,-0.965602,-0.964962,-0.962836,-0.955769,-0.948380,-0.954355,-0.945419,-0.931941,-0.899790,-0.917486,-0.955587,-0.962709,-0.964360,-1.000000,-0.967682,-0.968126,-0.967775,-0.967339,-0.965772,-0.960742,-0.954060,-0.938017,-0.944487,-0.933231,-0.898587,-0.925812,-0.957890,-0.964369,-0.966237
-1.000000,-0.960501,-0.961204,-0.960920,-0.959921,-0.957799,-0.950060,-0.943857,-0.955327,-0.941481,-0.929639,-0.897959,-0.913278,-0.950763,-0.956925,-0.958793,-1.000000,-0.962550,-0.963428,-0.963379,-0.963013,-0.961219,-0.956131,-0.949598,-0.933604,-0.941601,-0.930388,-0.897358,-0.922199,-0.953308,-0.958670,-0.960388
-1.000000,-0.964137,-0.964648,-0.964533,-0.963513,-0.961247,-0.955667,-0.950927,-0.951812,-0.941435,-0.932169,-0.901328,-0.920539,-0.955647,-0.961630,-0.963173,-1.000000,-0.965924,-0.966833,-0.966453,-0.965947,-0.963413,-0.957835,-0.950860,-0.933208,-0.941771,-0.931710,-0.829013,-0.929274,-0.957763,-0.963186,-0.964506
-1.000000,-0.966019,-0.966628,-0.966317,-0.965474,-0.963431,-0.958467,-0.955215,-0.946237,-0.949227,-0.939121,-0.908836,-0.919462,-0.957111,-0.963666,-0.964883,-1.000000,-0.968210,-0.969061,-0.968940,-0.968231,-0.965919,-0.961408,-0.956614,-0.943795,-0.947777,-0.938297,-0.771357,-0.929727,-0.959737,-0.965488,-0.966874
-1.000000,-0.965912,-0.966959,-0.966849,-0.966163,-0.964432,-0.959632,-0.955088,-0.953363,-0.946851,-0.937488,-0.907706,-0.916739,-0.957655,-0.963826,-0.964467,-1.000000,-0.968141,-0.969207,-0.969156,-0.968583,-0.966647,-0.962495,-0.956425,-0.941834,-0.947515,-0.936667,-0.842381,-0.926311,-0.960058,-0.965631,-0.966604
-1.000000,-0.967131,-0.967771,-0.967617,-0.966866,-0.964919,-0.959602,-0.956241,-0.953978,-0.948406,-0.937594,-0.900269,-0.916222,-0.956684,-0.964283,-0.965742,-1.000000,-0.968937,-0.969765,-0.969588,-0.969231,-0.967245,-0.962707,-0.957038,-0.943768,-0.948338,-0.938380,-0.820379,-0.928321,-0.959230,-0.965685,-0.967381
-1.000000,-0.966810,-0.967283,-0.967179,-0.966733,-0.964861,-0.957455,-0.954226,-0.951221,-0.948545,-0.938726,-0.906042,-0.918334,-0.956432,-0.964095,-0.965659,-1.000000,-0.968807,-0.969473,-0.969387,-0.968963,-0.966903,-0.960538,-0.954896,-0.941668,-0.947881,-0.935690,-0.809168,-0.929067,-0.959265,-0.965733,-0.967359
-1.000000,-0.968141,-0.968548,-0.968509,-0.967960,-0.965566,-0.959441,-0.955652,-0.952201,-0.950170,-0.937290,-0.898712,-0.917314,-0.956704,-0.964426,-0.966609,-1.000000,-0.969672,-0.970294,-0.970282,-0.969975,-0.967534,-0.961789,-0.956280,-0.944096,-0.946648,-0.932141,-0.817805,-0.929064,-0.958974,-0.965844,-0.967956
-1.000000,-0.966941,-0.967856,-0.967794,-0.967051,-0.963496,-0.957202,-0.953887,-0.947693,-0.953738,-0.947449,-0.911201,-0.916505,-0.954053,-0.962287,-0.964829,-1.000000,-0.967743,-0.968949,-0.969105,-0.968816,-0.965354,-0.958254,-0.955123,-0.943729,-0.953926,-0.942630,-0.795098,-0.928054,-0.956614,-0.963409,-0.965818
-1.000000,-0.970637,-0.971138,-0.970828,-0.970056,-0.967714,-0.960768,-0.956621,-0.951206,-0.956147,-0.948726,-0.912152,-0.921822,-0.960323,-0.968097,-0.969780,-1.000000,-0.972118,-0.972710,-0.972454,-0.972082,-0.969750,-0.963553,-0.958636,-0.948407,-0.957671,-0.948698,-0.803310,-0.936307,-0.962970,-0.969375,-0.971026
-1.000000,-0.969845,-0.970570,-0.970398,-0.969596,-0.966873,-0.959242,-0.956184,-0.951313,-0.955072,-0.950387,-0.915410,-0.923711,-0.961243,-0.967794,-0.968827,-1.000000,-0.971447,-0.972217,-0.972086,-0.971689,-0.968653,-0.960120,-0.955615,-0.944183,-0.958597,-0.947543,-0.807169,-0.936523,-0.963996,-0.969132,-0.970391
-1.000000,-0.970533,-0.971045,-0.970821,-0.970190,-0.968356,-0.963281,-0.960640,-0.950132,-0.957328,-0.950716,-0.917236,-0.926243,-0.962413,-0.968612,-0.969683,-1.000000,-0.971957,-0.972671,-0.972431,-0.972040,-0.970125,-0.964847,-0.960962,-0.951791,-0.959379,-0.946621,-0.797490,-0.938894,-0.965144,-0.970091,-0.971155
-1.000000,-0.968970,-0.970015,-0.970174,-0.969833,-0.968076,-0.963616,-0.960613,-0.948506,-0.956111,-0.947850,-0.914112,-0.928081,-0.961391,-0.966999,-0.968090,-1.000000,-0.970532,-0.971786,-0.971644,-0.971395,-0.969760,-0.965162,-0.961613,-0.952716,-0.956227,-0.944937,-0.802205,-0.939164,-0.963557,-0.968226,-0.969232
-1.000000,-0.967671,-0.968340,-0.968447,-0.968361,-0.967203,-0.963096,-0.960323,-0.949501,-0.958018,-0.949136,-0.913274,-0.924808,-0.959752,-0.965534,-0.966715,-1.000000,-0.969155,-0.970090,-0.970176,-0.970690,-0.969671,-0.965635,-0.963045,-0.954300,-0.958661,-0.946917,-0.793553,-0.937182,-0.962432,-0.966930,-0.968019
-1.000000,-0.969695,-0.970493,-0.970643,-0.970428,-0.968998,-0.963305,-0.958173,-0.950048,-0.955963,-0.946778,-0.914414,-0.923624,-0.960188,-0.967047,-0.968515,-1.000000,-0.971257,-0.972158,-0.972153,-0.972324,-0.970964,-0.965061,-0.960842,-0.951139,-0.957732,-0.945933,-0.790738,-0.936247,-0.963274,-0.968637,-0.969937
-1.000000,-0.969739,-0.970515,-0.970555,-0.970424,-0.968935,-0.963891,-0.959801,-0.950248,-0.955194,-0.947851,-0.915093,-0.923979,-0.959605,-0.966583,-0.968482,-1.000000,-0.971163,-0.972024,-0.971800,-0.972096,-0.970577,-0.964877,-0.960221,-0.946232,-0.957036,-0.946232,-0.796365,-0.936306,-0.962720,-0.968159,-0.969772
-1.000000,-0.970402,-0.971150,-0.971181,-0.970797,-0.969078,-0.962311,-0.958889,-0.949444,-0.956721,-0.947187,-0.913934,-0.922308,-0.958975,-0.966794,-0.969005,-1.000000,-0.971834,-0.972601,-0.972569,-0.972627,-0.971326,-0.965889,-0.962662,-0.952377,-0.956514,-0.944215,-0.794659,-0.935464,-0.962315,-0.968463,-0.970379
-1.000000,-0.968518,-0.969039,-0.968845,-0.968193,-0.966713,-0.961036,-0.958780,-0.949306,-0.954473,-0.938138,-0.908341,-0.917240,-0.957850,-0.965827,-0.967666,-1.000000,-0.970151,-0.970783,-0.970499,-0.970255,-0.969060,-0.963660,-0.961188,-0.951754,-0.956556,-0.944994,-0.794537,-0.933540,-0.961711,-0.967745,-0.969145
-1.000000,-0.966741,-0.966950,-0.966513,-0.966049,-0.963761,-0.957570,-0.954666,-0.949595,-0.951115,-0.940588,-0.911996,-0.918203,-0.957956,-0.965489,-0.966223,-1.000000,-0.968422,-0.968904,-0.968410,-0.968111,-0.965660,-0.959273,-0.956066,-0.946399,-0.952334,-0.940510,-0.791589,-0.934382,-0.962885,-0.967796,-0.968546
-1.000000,-0.971043,-0.971677,-0.971675,-0.971394,-0.969936,-0.963279,-0.958338,-0.948055,-0.955447,-0.948292,-0.918984,-0.928517,-0.962416,-0.968779,-0.970046,-1.000000,-0.972542,-0.973086,-0.973087,-0.973185,-0.972175,-0.966136,-0.961276,-0.948153,-0.957819,-0.948470,-0.793101,-0.940085,-0.965421,-0.970265,-0.971645
-1.000000,-0.970945,-0.971669,-0.971751,-0.971399,-0.969608,-0.961800,-0.957369,-0.943784,-0.952740,-0.945963,-0.906817,-0.923372,-0.961960,-0.968973,-0.970176,-1.000000,-0.972485,-0.973176,-0.973243,-0.973331,-0.972263,-0.965940,-0.960820,-0.945197,-0.956136,-0.944855,-0.793684,-0.937216,-0.965274,-0.970477,-0.971730
-1.000000,-0.970491,-0.971280,-0.971281,-0.971072,-0.969860,-0.963974,-0.955641,-0.945904,-0.952819,-0.945031,-0.909207,-0.918684,-0.958882,-0.967019,-0.968798,-1.000000,-0.971780,-0.972470,-0.972538,-0.972574,-0.971846,-0.965903,-0.959458,-0.945690,-0.953712,-0.941079,-0.784131,-0.931480,-0.962295,-0.968621,-0.970508
-1.000000,-0.968136,-0.968438,-0.968196,-0.967876,-0.967169,-0.962945,-0.957105,-0.948135,-0.953649,-0.943958,-0.912954,-0.918867,-0.955729,-0.964018,-0.966835,-1.000000,-0.969472,-0.969973,-0.969785,-0.969187,-0.968122,-0.964146,-0.961621,-0.948768,-0.952807,-0.941388,-0.797118,-0.932856,-0.959812,-0.966067,-0.968141
-1.000000,-0.969249,-0.969928,-0.969870,-0.969172,-0.967779,-0.963291,-0.958700,-0.947765,-0.955324,-0.945394,-0.914722,-0.925608,-0.959507,-0.965971,-0.967699,-1.000000,-0.970828,-0.971670,-0.971501,-0.971106,-0.969605,-0.965410,-0.962750,-0.951650,-0.956128,-0.944909,-0.792969,-0.938353,-0.963400,-0.967968,-0.969404
-1.000000,-0.965999,-0.966919,-0.967085,-0.966897,-0.965609,-0.960527,-0.956297,-0.946329,-0.953600,-0.946463,-0.917947,-0.920164,-0.955389,-0.962389,-0.964188,-1.000000,-0.967608,-0.968497,-0.968874,-0.968828,-0.968029,-0.963888,-0.961514,-0.950702,-0.956373,-0.944378,-0.794427,-0.932217,-0.959284,-0.964672,-0.966156
-1.000000,-0.960912,-0.961457,-0.960680,-0.959673,-0.958307,-0.954957,-0.955302,-0.949077,-0.949075,-0.935322,-0.913556,-0.919734,-0.951940,-0.957784,-0.958541,-1.000000,-0.964498,-0.964123,-0.962608,-0.962314,-0.961022,-0.959099,-0.959470,-0.949614,-0.951065,-0.941407,-0.787393,-0.932788,-0.957670,-0.961481,-0.962459
-1.000000,-0.966547,-0.966330,-0.966178,-0.965046,-0.961259,-0.954157,-0.951554,-0.925196,-0.949328,-0.935576,-0.905949,-0.905886,-0.956721,-0.965728,-0.966351,-1.000000,-0.968554,-0.968323,-0.968307,-0.966627,-0.963128,-0.957740,-0.957747,-0.945775,-0.950222,-0.936770,-0.915561,-0.925014,-0.962686,-0.969009,-0.969402
-1.000000,-0.965178,-0.965131,-0.964130,-0.963373,-0.959657,-0.951486,-0.947018,-0.919605,-0.943445,-0.917170,-0.895139,-0.899647,-0.951635,-0.962607,-0.964148,-1.000000,-0.966993,-0.967056,-0.966622,-0.966374,-0.962602,-0.954942,-0.951719,-0.937030,-0.935737,-0.901876,-0.882664,-0.913771,-0.957756,-0.966336,-0.967522
-1.000000,-0.966670,-0.967244,-0.966709,-0.966105,-0.963877,-0.957280,-0.952206,-0.926136,-0.952892,-0.944634,-0.918891,-0.916029,-0.959973,-0.966232,-0.966415,-1.000000,-0.968538,-0.969241,-0.969312,-0.968215,-0.966428,-0.961784,-0.955988,-0.936134,-0.954925,-0.945491,-0.932058,-0.933266,-0.965049,-0.968996,-0.968881
-1.000000,-0.967389,-0.967989,-0.967526,-0.966688,-0.963836,-0.957226,-0.951920,-0.920159,-0.954514,-0.942990,-0.916443,-0.912933,-0.957466,-0.965409,-0.966279,-1.000000,-0.969260,-0.970015,-0.969725,-0.968867,-0.966594,-0.961209,-0.957413,-0.943014,-0.954924,-0.943578,-0.929127,-0.930923,-0.962896,-0.968417,-0.968921
-1.000000,-0.967672,-0.968391,-0.968002,-0.967236,-0.964568,-0.957700,-0.952361,-0.926375,-0.954906,-0.944466,-0.919221,-0.916169,-0.959769,-0.967209,-0.967170,-1.000000,-0.969811,-0.970409,-0.970136,-0.969451,-0.967446,-0.961690,-0.957724,-0.942755,-0.955760,-0.945470,-0.931737,-0.933343,-0.965223,-0.970155,-0.970111
-1.000000,-0.967939,-0.968526,-0.968072,-0.967255,-0.964620,-0.958037,-0.952472,-0.931909,-0.954465,-0.943708,-0.917100,-0.912308,-0.958013,-0.966035,-0.966994,-1.000000,-0.969970,-0.970492,-0.970217,-0.969475,-0.967283,-0.962265,-0.957670,-0.943021,-0.955393,-0.945175,-0.928393,-0.930450,-0.963828,-0.969057,-0.969744
-1.000000,-0.966725,-0.967536,-0.967252,-0.966758,-0.964308,-0.957863,-0.952753,-0.928509,-0.954940,-0.947839,-0.920278,-0.909961,-0.955983,-0.964616,-0.965522,-1.000000,-0.968597,-0.969341,-0.969277,-0.968831,-0.966940,-0.962173,-0.957930,-0.943275,-0.957654,-0.951457,-0.935165,-0.928224,-0.961566,-0.966903,-0.967660
-1.000000,-0.964795,-0.965600,-0.965319,-0.965101,-0.962260,-0.954195,-0.948264,-0.933149,-0.952765,-0.943432,-0.915546,-0.911947,-0.951002,-0.960586,-0.963017,-1.000000,-0.966494,-0.967191,-0.967090,-0.967075,-0.964989,-0.958996,-0.955706,-0.943173,-0.955027,-0.949023,-0.932565,-0.928961,-0.956827,-0.962479,-0.964522
-1.000000,-0.966007,-0.966607,-0.966094,-0.965436,-0.961967,-0.954367,-0.952471,-0.929041,-0.954617,-0.947917,-0.917299,-0.909586,-0.955590,-0.964400,-0.965295,-1.000000,-0.968028,-0.968449,-0.968241,-0.967502,-0.964735,-0.958015,-0.954883,-0.942274,-0.956809,-0.948697,-0.935108,-0.928386,-0.960844,-0.966205,-0.967513
-1.000000,-0.964645,-0.965640,-0.965618,-0.965335,-0.963302,-0.957293,-0.953165,-0.934295,-0.955734,-0.950648,-0.924173,-0.913150,-0.955080,-0.963102,-0.963873,-1.000000,-0.967050,-0.967838,-0.967796,-0.967353,-0.965921,-0.960718,-0.956810,-0.939798,-0.958481,-0.952878,-0.928448,-0.928925,-0.959786,-0.964645,-0.966185
-1.000000,-0.967825,-0.968484,-0.968269,-0.968219,-0.966037,-0.958810,-0.953670,-0.939428,-0.956789,-0.951757,-0.922916,-0.912254,-0.955710,-0.965135,-0.966578,-1.000000,-0.969699,-0.970279,-0.970311,-0.970092,-0.968679,-0.962626,-0.955174,-0.938636,-0.959704,-0.953089,-0.927097,-0.928550,-0.959643,-0.965896,-0.968372
-1.000000,-0.966973,-0.967672,-0.967416,-0.967094,-0.964689,-0.957798,-0.952707,-0.936592,-0.954503,-0.948123,-0.919125,-0.914830,-0.956352,-0.964763,-0.965916,-1.000000,-0.968652,-0.969346,-0.969325,-0.969072,-0.967472,-0.961679,-0.956118,-0.938160,-0.957744,-0.953520,-0.929290,-0.930206,-0.960158,-0.965479,-0.967511
-1.000000,-0.964464,-0.965904,-0.965930,-0.966027,-0.963504,-0.956028,-0.953657,-0.929347,-0.954434,-0.949732,-0.918751,-0.913293,-0.953930,-0.961894,-0.963108,-1.000000,-0.966211,-0.967599,-0.968382,-0.968447,-0.966659,-0.959963,-0.955313,-0.939952,-0.955132,-0.947996,-0.922664,-0.928351,-0.958692,-0.963598,-0.965159
-1.000000,-0.967558,-0.967834,-0.967442,-0.967298,-0.964572,-0.958624,-0.952949,-0.936772,-0.948316,-0.947574,-0.911560,-0.914683,-0.954549,-0.964123,-0.966403,-1.000000,-0.969097,-0.969230,-0.969485,-0.969502,-0.967348,-0.960566,-0.953824,-0.935828,-0.950326,-0.945635,-0.911489,-0.929347,-0.958584,-0.964658,-0.967943
-1.000000,-0.967379,-0.968080,-0.967579,-0.966670,-0.964688,-0.959238,-0.954105,-0.935683,-0.950094,-0.947411,-0.920205,-0.916787,-0.957209,-0.965410,-0.966343,-1.000000,-0.968332,-0.968017,-0.969650,-0.968066,-0.966796,-0.961113,-0.954840,-0.938430,-0.946903,-0.943149,-0.920291,-0.931554,-0.961167,-0.966181,-0.968009
-1.000000,-0.964703,-0.963509,-0.963951,-0.963796,-0.962552,-0.956691,-0.952043,-0.934315,-0.947746,-0.943384,-0.917675,-0.916505,-0.955965,-0.963291,-0.963646,-1.000000,-0.965956,-0.967635,-0.967061,-0.965689,-0.965608,-0.959840,-0.955115,-0.937964,-0.948093,-0.944511,-0.920456,-0.931145,-0.959844,-0.964022,-0.965108
-1.000000,-0.964697,-0.965193,-0.965295,-0.964326,-0.963137,-0.956604,-0.952786,-0.936174,-0.941162,-0.946986,-0.908233,-0.905467,-0.953506,-0.962725,-0.963632,-1.000000,-0.966248,-0.966739,-0.967310,-0.966326,-0.965467,-0.958630,-0.953117,-0.932845,-0.944073,-0.939702,-0.914987,-0.924194,-0.957571,-0.963473,-0.965376
-1.000000,-0.960152,-0.960928,-0.961297,-0.962070,-0.959062,-0.953143,-0.946409,-0.932019,-0.942600,-0.943336,-0.911024,-0.909431,-0.952013,-0.959322,-0.958969,-1.000000,-0.960711,-0.961658,-0.963016,-0.962294,-0.961227,-0.957326,-0.950475,-0.935594,-0.943929,-0.938772,-0.912604,-0.923016,-0.955438,-0.960174,-0.961335
-1.000000,-0.959625,-0.960533,-0.959849,-0.959929,-0.956894,-0.948100,-0.941218,-0.936511,-0.940851,-0.940683,-0.909309,-0.908031,-0.949634,-0.957107,-0.957791,-1.000000,-0.960475,-0.961504,-0.961548,-0.957147,-0.960420,-0.955217,-0.946399,-0.927101,-0.941994,-0.935850,-0.909600,-0.921321,-0.953324,-0.958355,-0.959936
-1.000000,-0.960178,-0.960655,-0.960804,-0.961566,-0.958911,-0.953668,-0.947973,-0.936432,-0.942707,-0.942903,-0.909485,-0.902243,-0.949652,-0.957958,-0.958492,-1.000000,-0.961039,-0.961878,-0.962674,-0.961871,-0.961657,-0.957270,-0.950355,-0.931782,-0.943804,-0.938077,-0.908651,-0.917950,-0.953450,-0.959189,-0.960883
-1.000000,-0.959270,-0.958349,-0.958356,-0.955333,-0.952303,-0.948652,-0.942688,-0.934582,-0.938637,-0.936046,-0.893765,-0.892687,-0.945486,-0.955572,-0.956701,-1.000000,-0.960266,-0.960625,-0.959968,-0.960675,-0.958656,-0.955331,-0.947575,-0.924698,-0.937533,-0.931715,-0.898053,-0.909356,-0.950107,-0.957100,-0.959465
-1.000000,-0.958374,-0.957403,-0.957055,-0.958266,-0.955039,-0.947084,-0.943476,-0.921744,-0.937797,-0.933005,-0.888873,-0.884445,-0.943131,-0.954154,-0.955365,-1.000000,-0.959419,-0.959621,-0.959242,-0.959905,-0.958491,-0.953986,-0.948418,-0.931543,-0.935505,-0.927814,-0.888425,-0.902796,-0.948985,-0.956829,-0.958913
-1.000000,-0.955071,-0.951881,-0.952453,-0.957722,-0.953914,-0.945084,-0.939112,-0.932954,-0.936900,-0.936723,-0.901447,-0.901214,-0.946275,-0.954025,-0.954112,-1.000000,-0.954313,-0.949874,-0.954061,-0.952516,-0.956475,-0.950768,-0.946967,-0.928485,-0.937342,-0.931254,-0.900432,-0.915459,-0.950409,-0.956018,-0.957492
-1.000000,-0.956310,-0.955658,-0.955843,-0.957045,-0.953925,-0.947836,-0.942592,-0.927296,-0.935804,-0.933452,-0.896763,-0.895960,-0.943792,-0.954248,-0.954886,-1.000000,-0.957386,-0.958384,-0.957835,-0.956730,-0.958098,-0.954642,-0.947161,-0.926752,-0.935365,-0.928422,-0.893767,-0.908705,-0.948329,-0.955595,-0.957857
-1.000000,-0.954225,-0.954068,-0.952266,-0.953643,-0.947368,-0.938912,-0.935524,-0.930416,-0.933102,-0.932176,-0.890247,-0.891249,-0.942000,-0.951602,-0.951780,-1.000000,-0.952943,-0.956114,-0.955131,-0.954668,-0.951842,-0.946384,-0.939651,-0.920917,-0.933616,-0.926444,-0.887952,-0.906319,-0.947026,-0.953592,-0.955228
-1.000000,-0.953776,-0.954067,-0.953469,-0.953153,-0.657157,-0.937658,-0.935066,-0.919877,-0.931440,-0.928772,-0.893232,-0.898622,-0.945933,-0.953633,-0.952538,-1.000000,-0.953391,-0.956494,-0.956720,-0.952965,-0.948167,-0.942490,-0.937677,-0.920934,-0.933083,-0.929632,-0.895210,-0.911751,-0.949184,-0.954323,-0.955683
-1.000000,-0.954829,-0.954869,-0.953308,-0.953152,-0.694143,-0.941281,-0.939767,-0.917628,-0.933485,-0.932413,-0.893374,-0.898611,-0.946049,-0.953887,-0.953479,-1.000000,-0.953114,-0.956908,-0.956807,-0.954010,-0.950833,-0.946205,-0.941629,-0.920078,-0.935179,-0.929845,-0.893204,-0.912865,-0.949475,-0.955059,-0.956309
-1.000000,-0.945590,-0.950452,-0.951962,-0.951318,-0.567203,-0.937372,-0.935937,-0.911634,-0.933859,-0.929789,-0.891005,-0.894474,-0.943160,-0.950417,-0.950694,-1.000000,-0.950351,-0.954340,-0.954994,-0.952067,-0.948157,-0.941298,-0.939436,-0.921967,-0.932931,-0.927234,-0.893278,-0.911435,-0.947758,-0.952770,-0.953911
-1.000000,-0.950258,-0.951151,-0.951207,-0.950680,-0.460478,-0.936316,-0.934533,-0.907307,-0.929679,-0.931576,-0.891638,-0.895564,-0.941546,-0.950319,-0.949869,-1.000000,-0.950912,-0.954323,-0.954404,-0.951425,-0.947038,-0.941129,-0.934774,-0.915799,-0.930555,-0.926166,-0.889342,-0.908708,-0.945341,-0.951933,-0.953782
-1.000000,-0.954255,-0.952571,-0.953042,-0.953344,-0.447441,-0.940510,-0.939753,-0.853075,-0.932835,-0.937795,-0.897749,-0.903475,-0.947852,-0.955155,-0.954226,-1.000000,-0.954669,-0.956119,-0.956286,-0.954566,-0.951595,-0.946370,-0.938682,-0.919667,-0.934705,-0.930990,-0.896237,-0.917370,-0.950898,-0.955788,-0.957567
-1.000000,-0.952815,-0.951978,-0.953244,-0.953227,-0.442782,-0.941847,-0.940040,-0.852033,-0.933756,-0.937662,-0.894270,-0.900519,-0.947416,-0.955262,-0.954521,-1.000000,-0.954602,-0.955635,-0.955915,-0.954512,-0.949584,-0.946959,-0.941616,-0.920287,-0.934433,-0.929444,-0.895168,-0.915640,-0.950081,-0.955489,-0.957663
-1.000000,-0.953619,-0.951796,-0.952775,-0.951842,-0.430758,-0.940872,-0.939440,-0.784539,-0.933087,-0.936330,-0.894353,-0.899273,-0.946388,-0.953972,-0.953058,-1.000000,-0.952792,-0.955798,-0.955944,-0.953298,-0.949548,-0.947065,-0.941413,-0.921650,-0.935155,-0.930689,-0.894610,-0.913223,-0.949327,-0.954510,-0.956346
-1.000000,-0.950976,-0.950130,-0.950427,-0.950403,-0.404218,-0.938458,-0.938008,-0.825511,-0.931350,-0.934850,-0.894372,-0.899327,-0.945607,-0.953608,-0.952585,-1.000000,-0.949735,-0.952530,-0.952788,-0.950009,-0.947707,-0.943664,-0.939414,-0.919285,-0.933572,-0.928705,-0.881552,-0.914075,-0.949930,-0.954577,-0.955930
-1.000000,-0.953174,-0.950665,-0.948886,-0.950402,-0.383739,-0.940362,-0.940019,-0.715814,-0.932663,-0.936428,-0.894896,-0.902970,-0.947669,-0.955244,-0.952164,-1.000000,-0.947578,-0.955291,-0.953004,-0.948540,-0.949401,-0.947110,-0.941764,-0.920668,-0.934505,-0.929179,-0.870413,-0.916938,-0.951189,-0.955642,-0.955424
-1.000000,-0.947082,-0.944667,-0.945808,-0.943696,-0.280607,-0.936153,-0.934020,-0.753116,-0.928155,-0.932144,-0.889913,-0.896197,-0.943732,-0.949568,-0.943321,-1.000000,-0.941368,-0.949541,-0.949785,-0.943639,-0.947413,-0.941134,-0.934840,-0.915555,-0.929539,-0.924607,-0.886655,-0.910976,-0.947812,-0.951446,-0.948938
-1.000000,-0.948686,-0.948611,-0.949920,-0.949298,0.140388,-0.937080,-0.935670,-0.722095,-0.929353,-0.932130,-0.883347,-0.898264,-0.946913,-0.953273,-0.949732,-1.000000,-0.945301,-0.953607,-0.950451,-0.945404,-0.947807,-0.944004,-0.938697,-0.917943,-0.931379,-0.925907,-0.864977,-0.912077,-0.950490,-0.954929,-0.953808
-1.000000,-0.945066,-0.939680,-0.936871,-0.932084,0.358208,-0.932366,-0.934073,-0.706587,-0.927796,-0.930196,-0.887565,-0.897634,-0.947582,-0.953393,-0.949445,-1.000000,-0.942612,-0.943209,-0.938638,-0.937723,-0.941808,-0.938603,-0.935737,-0.916253,-0.930546,-0.925528,-0.864938,-0.911686,-0.951011,-0.955213,-0.953136
-1.000000,-0.944918,-0.941401,-0.934833,-0.931745,0.233677,-0.927496,-0.929336,-0.691997,-0.927146,-0.931039,-0.892432,-0.903888,-0.945260,-0.950647,-0.946876,-1.000000,-0.937216,-0.941641,-0.936964,-0.931019,-0.937182,-0.934422,-0.934194,-0.917198,-0.930853,-0.927889,-0.872967,-0.916875,-0.948217,-0.950723,-0.949375
-1.000000,-0.942625,-0.939067,-0.937546,-0.936888,0.368493,-0.929270,-0.931322,-0.685983,-0.927048,-0.930094,-0.891828,-0.900884,-0.943335,-0.949392,-0.945629,-1.000000,-0.935635,-0.942728,-0.941479,-0.934293,-0.938126,-0.936500,-0.935484,-0.917479,-0.930054,-0.925874,-0.869191,-0.912453,-0.946080,-0.949376,-0.948588
-1.000000,-0.940922,-0.929966,-0.915710,-0.915693,0.309937,-0.922562,-0.926001,-0.695148,-0.923312,-0.926037,-0.884130,-0.897721,-0.937736,-0.945443,-0.941584,-1.000000,-0.923360,-0.912670,-0.905273,-0.910991,-0.929016,-0.929035,-0.930364,-0.913938,-0.925201,-0.920322,-0.869454,-0.905709,-0.941131,-0.943274,-0.941384
-1.000000,-0.930791,-0.931190,-0.926465,-0.926888,0.581451,-0.916354,-0.923754,-0.684781,-0.920866,-0.924474,-0.880882,-0.882143,-0.929123,-0.936603,-0.931943,-1.000000,-0.907808,-0.929876,-0.929553,-0.920111,-0.917957,-0.921167,-0.927559,-0.912776,-0.925324,-0.921928,-0.868263,-0.894073,-0.934070,-0.936329,-0.934381
-1.000000,-0.931294,-0.931949,-0.926878,-0.925596,0.493179,-0.919569,-0.925336,-0.682612,-0.923763,-0.925126,-0.884583,-0.885306,-0.933482,-0.940207,-0.935427,-1.000000,-0.922674,-0.931772,-0.927782,-0.917710,-0.919670,-0.924242,-0.929951,-0.914753,-0.927752,-0.922779,-0.862756,-0.901035,-0.938201,-0.941671,-0.939160
-1.000000,-0.935552,-0.932840,-0.926706,-0.925859,0.568557,-0.921996,-0.926219,-0.670368,-0.926644,-0.925071,-0.889677,-0.890324,-0.935488,-0.941593,-0.937161,-1.000000,-0.922518,-0.931706,-0.927060,-0.919211,-0.924480,-0.927787,-0.931998,-0.917421,-0.928338,-0.922756,-0.873512,-0.903341,-0.939820,-0.942981,-0.940575
-1.000000,-0.934641,-0.934149,-0.927584,-0.927330,0.565369,-0.921168,-0.927526,-0.658463,-0.928155,-0.927979,-0.887721,-0.886755,-0.933034,-0.940176,-0.936383,-1.000000,-0.922826,-0.932728,-0.929134,-0.919012,-0.923052,-0.926422,-0.931489,-0.917481,-0.931683,-0.926356,-0.867608,-0.900382,-0.938350,-0.942193,-0.939884
-1.000000,-0.935153,-0.935279,-0.929036,-0.928800,0.565422,-0.923199,-0.930588,-0.665628,-0.932216,-0.928442,-0.897336,-0.894192,-0.936342,-0.941965,-0.936661,-1.000000,-0.920829,-0.934890,-0.931390,-0.921022,-0.925467,-0.928043,-0.934845,-0.922757,-0.936704,-0.930514,-0.873951,-0.906981,-0.940390,-0.943459,-0.940031
-1.000000,-0.933797,-0.933271,-0.925880,-0.924257,0.577600,-0.920869,-0.929522,-0.660553,-0.933521,-0.931492,-0.897290,-0.893469,-0.935800,-0.941545,-0.937198,-1.000000,-0.915281,-0.933748,-0.928949,-0.920266,-0.920347,-0.925322,-0.933697,-0.920323,-0.938158,-0.935082,-0.875230,-0.907179,-0.939827,-0.942903,-0.939158
-1.000000,-0.935184,-0.932383,-0.924802,-0.925496,0.592347,-0.922520,-0.931003,-0.664357,-0.932094,-0.930525,-0.893653,-0.888659,-0.933836,-0.941149,-0.937865,-1.000000,-0.921581,-0.932926,-0.926739,-0.919415,-0.923105,-0.927462,-0.934959,-0.923925,-0.936180,-0.931489,-0.878735,-0.901160,-0.936366,-0.940243,-0.940344
-1.000000,-0.935670,-0.934332,-0.925741,-0.924913,0.602511,-0.923135,-0.932776,-0.658561,-0.935425,-0.933865,-0.888982,-0.877541,-0.933426,-0.942228,-0.938660,-1.000000,-0.921306,-0.934518,-0.929290,-0.918524,-0.921200,-0.926946,-0.936080,-0.925294,-0.939610,-0.935016,-0.865343,-0.895932,-0.938602,-0.942686,-0.941064
-1.000000,-0.935897,-0.934229,-0.926559,-0.923989,0.603405,-0.920151,-0.932208,-0.646167,-0.938246,-0.939435,-0.908493,-0.898499,-0.940451,-0.945055,-0.939982,-1.000000,-0.920867,-0.934470,-0.928932,-0.919166,-0.917370,-0.923619,-0.935552,-0.926899,-0.944051,-0.941132,-0.882640,-0.909301,-0.943983,-0.944720,-0.942051
-1.000000,-0.934284,-0.934736,-0.927442,-0.925609,0.600150,-0.922876,-0.933750,-0.644290,-0.936792,-0.938529,-0.911708,-0.903885,-0.940733,-0.943905,-0.938482,-1.000000,-0.921042,-0.934003,-0.929798,-0.918644,-0.920016,-0.925732,-0.935421,-0.923793,-0.942663,-0.939931,-0.877686,-0.911644,-0.943128,-0.942858,-0.941089
-1.000000,-0.932082,-0.934081,-0.927571,-0.924879,0.600417,-0.923841,-0.932391,-0.648565,-0.936733,-0.936618,-0.911512,-0.898941,-0.940092,-0.944371,-0.937119,-1.000000,-0.919754,-0.932763,-0.929398,-0.917909,-0.921258,-0.926557,-0.937531,-0.929125,-0.941865,-0.938265,-0.883585,-0.910189,-0.943525,-0.943957,-0.940871
-1.000000,-0.934743,-0.929053,-0.924921,-0.924023,0.598044,-0.923939,-0.930221,-0.646261,-0.939444,-0.936037,-0.902180,-0.888096,-0.938597,-0.941367,-0.937352,-1.000000,-0.908568,-0.927451,-0.928707,-0.918253,-0.921054,-0.927355,-0.936620,-0.931129,-0.943340,-0.936008,-0.881565,-0.904499,-0.941282,-0.942583,-0.940065
-1.000000,-0.934992,-0.934379,-0.927647,-0.926511,0.590030,-0.922381,-0.933813,-0.649894,-0.939127,-0.940125,-0.912733,-0.902617,-0.941158,-0.943799,-0.939579,-1.000000,-0.919410,-0.933718,-0.928536,-0.918353,-0.918811,-0.926274,-0.936015,-0.926821,-0.945044,-0.942082,-0.888294,-0.916032,-0.942280,-0.943301,-0.941957
-1.000000,-0.931354,-0.931084,-0.925345,-0.925136,0.574292,-0.922383,-0.935259,-0.649434,-0.939858,-0.940267,-0.916973,-0.904871,-0.938076,-0.939875,-0.934069,-1.000000,-0.915084,-0.930188,-0.926583,-0.917069,-0.914783,-0.927386,-0.937422,-0.929502,-0.944809,-0.940266,-0.881019,-0.915704,-0.939890,-0.939268,-0.937175
-1.000000,-0.935209,-0.934315,-0.927046,-0.926752,0.581869,-0.929364,-0.938143,-0.652893,-0.941834,-0.942554,-0.913489,-0.896429,-0.940096,-0.943475,-0.939033,-1.000000,-0.920538,-0.934126,-0.928457,-0.918978,-0.923362,-0.932156,-0.941345,-0.932852,-0.946829,-0.944162,-0.880908,-0.906171,-0.941712,-0.944141,-0.942062
-1.000000,-0.929376,-0.931927,-0.924938,-0.924037,0.615406,-0.924266,-0.932596,-0.638538,-0.936451,-0.938746,-0.912914,-0.897913,-0.939328,-0.942328,-0.938002,-1.000000,-0.919167,-0.932010,-0.926092,-0.916977,-0.920381,-0.928577,-0.936236,-0.925880,-0.942223,-0.941663,-0.883199,-0.909504,-0.941940,-0.943796,-0.941132
-1.000000,-0.934523,-0.933200,-0.926140,-0.925357,0.607370,-0.926399,-0.935155,-0.600398,-0.939086,-0.938493,-0.912492,-0.899425,-0.938988,-0.943100,-0.938983,-1.000000,-0.920481,-0.933099,-0.927511,-0.918251,-0.921333,-0.929956,-0.936545,-0.922378,-0.941782,-0.941631,-0.879784,-0.910669,-0.941015,-0.944123,-0.942154
-1.000000,-0.934801,-0.934071,-0.925764,-0.925190,0.598368,-0.925396,-0.934672,-0.620645,-0.935411,-0.938360,-0.910769,-0.900158,-0.939225,-0.943314,-0.938961,-1.000000,-0.920857,-0.933311,-0.927044,-0.917884,-0.920208,-0.929843,-0.938158,-0.927678,-0.944380,-0.940291,-0.841562,-0.909539,-0.939910,-0.943969,-0.942124
-1.000000,-0.931303,-0.932640,-0.923827,-0.924337,0.587528,-0.923051,-0.933081,-0.574686,-0.939141,-0.938826,-0.912476,-0.898349,-0.937910,-0.940741,-0.936903,-1.000000,-0.918839,-0.931093,-0.925391,-0.916108,-0.920477,-0.928920,-0.937527,-0.927937,-0.944617,-0.940890,-0.863942,-0.909788,-0.939958,-0.942381,-0.940155
-1.000000,-0.931000,-0.930391,-0.924153,-0.923347,0.586363,-0.920680,-0.930966,-0.700022,-0.936004,-0.936175,-0.910259,-0.892665,-0.936523,-0.940214,-0.936150,-1.000000,-0.915307,-0.928891,-0.924868,-0.914555,-0.915048,-0.923134,-0.933105,-0.926671,-0.941855,-0.938750,-0.814951,-0.903923,-0.939567,-0.942340,-0.939188
-1.000000,-0.932105,-0.932390,-0.924164,-0.921926,0.484538,-0.922688,-0.930290,-0.813239,-0.935369,-0.935458,-0.907188,-0.892216,-0.934769,-0.940543,-0.936752,-1.000000,-0.918230,-0.931368,-0.925950,-0.915681,-0.917203,-0.926956,-0.934275,-0.926080,-0.939608,-0.932888,-0.851034,-0.903385,-0.937689,-0.941079,-0.939613
-1.000000,-0.932068,-0.932718,-0.925249,-0.924334,0.319912,-0.923620,-0.931606,-0.804070,-0.936801,-0.936270,-0.907265,-0.892706,-0.934215,-0.940044,-0.937115,-1.000000,-0.920184,-0.931067,-0.926613,-0.917574,-0.917236,-0.927352,-0.934900,-0.925791,-0.941801,-0.937448,-0.834076,-0.905501,-0.936421,-0.940500,-0.940421
-1.000000,-0.924656,-0.926898,-0.919090,-0.916696,0.588683,-0.917309,-0.920355,-0.807927,-0.927379,-0.926974,-0.897716,-0.883589,-0.926155,-0.933074,-0.929374,-1.000000,-0.913078,-0.925695,-0.920062,-0.915435,-0.915052,-0.922190,-0.925926,-0.914352,-0.932196,-0.928506,-0.828063,-0.895949,-0.927448,-0.932663,-0.931466
-1.000000,-0.925039,-0.928453,-0.922419,-0.919948,-0.516919,-0.921156,-0.930070,-0.803521,-0.936399,-0.936958,-0.883480,-0.883246,-0.932071,-0.938355,-0.937428,-1.000000,-0.919962,-0.928873,-0.924478,-0.915338,-0.914484,-0.926437,-0.934700,-0.924938,-0.941202,-0.934665,-0.812118,-0.895136,-0.933517,-0.938328,-0.939885
-1.000000,-0.926034,-0.921671,-0.918132,-0.916626,-0.548141,-0.921887,-0.932617,-0.810416,-0.939346,-0.937518,-0.906427,-0.892478,-0.931853,-0.939817,-0.936550,-1.000000,-0.921546,-0.927827,-0.915905,-0.911127,-0.915141,-0.928512,-0.937150,-0.929676,-0.943742,-0.935860,-0.836040,-0.905572,-0.932132,-0.937152,-0.939828
-1.000000,-0.935576,-0.935464,-0.929304,-0.928485,-0.489420,-0.931363,-0.940194,-0.829481,-0.942828,-0.940506,-0.906590,-0.889442,-0.937165,-0.944447,-0.942853,-1.000000,-0.929284,-0.938056,-0.930925,-0.913543,-0.918686,-0.933980,-0.941989,-0.931041,-0.945273,-0.936328,-0.824896,-0.903225,-0.936506,-0.941126,-0.943786
-1.000000,-0.941313,-0.933530,-0.934486,-0.929136,-0.698060,-0.931664,-0.937198,-0.076449,-0.940388,-0.938830,-0.908243,-0.891648,-0.938820,-0.945724,-0.943643,-1.000000,-0.926509,-0.933486,-0.933008,-0.925343,-0.926700,-0.936573,-0.939144,-0.927957,-0.941503,-0.931966,-0.826100,-0.903212,-0.938537,-0.944884,-0.945442
-1.000000,-0.930728,-0.928678,-0.930675,-0.925348,-0.585144,-0.920729,-0.928632,-0.436755,-0.933336,-0.929841,-0.895152,-0.876979,-0.930428,-0.940134,-0.941002,-1.000000,-0.917615,-0.905370,-0.914588,-0.900837,-0.913356,-0.921900,-0.930333,-0.921923,-0.934805,-0.924992,-0.817068,-0.888136,-0.930061,-0.936010,-0.940425
-1.000000,-0.946253,-0.945695,-0.943370,-0.940185,-0.809289,-0.939317,-0.941917,-0.269661,-0.944378,-0.942871,-0.905407,-0.889916,-0.937433,-0.945118,-0.946781,-1.000000,-0.935061,-0.947432,-0.939259,-0.940659,-0.937129,-0.944836,-0.944250,-0.931495,-0.947199,-0.938874,-0.832096,-0.904379,-0.937307,-0.944012,-0.949613
-1.000000,-0.943788,-0.943971,-0.943814,-0.939949,-0.862206,-0.939449,-0.934837,-0.033065,-0.941817,-0.941240,-0.904342,-0.887405,-0.939887,-0.949202,-0.949631,-1.000000,-0.941263,-0.948593,-0.945837,-0.941530,-0.938305,-0.945541,-0.941695,-0.929542,-0.944822,-0.936908,-0.815583,-0.905020,-0.939564,-0.948378,-0.952970
-1.000000,-0.944142,-0.945330,-0.945787,-0.939064,-0.900955,-0.939472,-0.941007,-0.048117,-0.944580,-0.944642,-0.910123,-0.894814,-0.942661,-0.948662,-0.948444,-1.000000,-0.940695,-0.950260,-0.947621,-0.942949,-0.936186,-0.945301,-0.942453,-0.928595,-0.947789,-0.940882,-0.826291,-0.911234,-0.941886,-0.948479,-0.951911
-1.000000,-0.945745,-0.946046,-0.945798,-0.939739,-0.928097,-0.940938,-0.942430,0.051955,-0.944942,-0.944380,-0.909174,-0.894177,-0.944041,-0.950317,-0.949535,-1.000000,-0.940309,-0.950606,-0.947858,-0.944241,-0.938516,-0.946457,-0.944822,-0.931168,-0.947412,-0.939463,-0.823179,-0.910112,-0.942242,-0.949010,-0.953903
-1.000000,-0.939176,-0.930726,-0.941957,-0.939598,-0.939167,-0.937854,-0.939474,0.266648,-0.941870,-0.942878,-0.908630,-0.896069,-0.943017,-0.949199,-0.944321,-1.000000,-0.925610,-0.941681,-0.946918,-0.942735,-0.938091,-0.943958,-0.941434,-0.929121,-0.946735,-0.940057,-0.821557,-0.910600,-0.942971,-0.946871,-0.948114
-1.000000,-0.946074,-0.942202,-0.945134,-0.934864,-0.934331,-0.936874,-0.940804,0.551626,-0.943684,-0.943988,-0.906829,-0.893431,-0.942844,-0.950549,-0.947349,-1.000000,-0.940618,-0.948915,-0.946255,-0.940403,-0.936701,-0.944171,-0.943059,-0.929498,-0.947343,-0.940384,-0.823475,-0.905218,-0.939748,-0.950045,-0.952436
-1.000000,-0.946829,-0.945336,-0.948669,-0.943303,-0.936801,-0.939959,-0.941645,0.465242,-0.943975,-0.943904,-0.902628,-0.888204,-0.943420,-0.950800,-0.948661,-1.000000,-0.935555,-0.950642,-0.949443,-0.942784,-0.939582,-0.946627,-0.943608,-0.928178,-0.946984,-0.938872,-0.819213,-0.906488,-0.943090,-0.949929,-0.952279
-1.000000,-0.945422,-0.943865,-0.949187,-0.943790,-0.937826,-0.938003,-0.938495,0.730765,-0.939873,-0.939779,-0.908795,-0.895781,-0.941403,-0.949346,-0.947583,-1.000000,-0.939448,-0.950244,-0.949146,-0.943915,-0.940355,-0.945220,-0.940873,-0.924203,-0.943154,-0.934816,-0.820619,-0.911445,-0.941104,-0.949918,-0.952105
-1.000000,-0.944364,-0.941366,-0.945202,-0.938043,-0.935984,-0.938275,-0.939110,0.842761,-0.940698,-0.942308,-0.910527,-0.896483,-0.939934,-0.947094,-0.946418,-1.000000,-0.939112,-0.947291,-0.945485,-0.943523,-0.939813,-0.944221,-0.940629,-0.924675,-0.944542,-0.937554,-0.821744,-0.912534,-0.940198,-0.947571,-0.950874
-1.000000,-0.947260,-0.945266,-0.948849,-0.943651,-0.938828,-0.940224,-0.941582,0.863019,-0.941495,-0.940109,-0.907775,-0.888371,-0.941468,-0.949795,-0.948139,-1.000000,-0.937488,-0.950748,-0.949403,-0.943750,-0.941192,-0.946925,-0.942366,-0.925086,-0.943730,-0.933778,-0.813579,-0.903195,-0.939755,-0.949873,-0.952278
-1.000000,-0.947306,-0.944910,-0.949431,-0.944169,-0.939284,-0.940197,-0.941056,0.880094,-0.942342,-0.942619,-0.910706,-0.896836,-0.941872,-0.949526,-0.948061,-1.000000,-0.938844,-0.950324,-0.948858,-0.944032,-0.941330,-0.946590,-0.941736,-0.925376,-0.944892,-0.935713,-0.817093,-0.910867,-0.939562,-0.947707,-0.951510
-1.000000,-0.940256,-0.935891,-0.942203,-0.938951,-0.926968,-0.923509,-0.922636,0.913965,-0.929978,-0.931482,-0.893433,-0.882933,-0.930181,-0.939397,-0.938084,-1.000000,-0.915243,-0.936567,-0.943548,-0.938833,-0.925157,-0.931381,-0.929744,-0.919051,-0.934856,-0.926938,-0.821162,-0.899513,-0.928454,-0.936388,-0.940000
-1.000000,-0.946847,-0.945673,-0.948941,-0.943325,-0.940217,-0.942788,-0.943542,0.929642,-0.944267,-0.942370,-0.904920,-0.890367,-0.935995,-0.948031,-0.948163,-1.000000,-0.941995,-0.951218,-0.949902,-0.944876,-0.942229,-0.947875,-0.945098,-0.931652,-0.945642,-0.935419,-0.819641,-0.908391,-0.938624,-0.947190,-0.951394
-1.000000,-0.946403,-0.945154,-0.948000,-0.942879,-0.942133,-0.945819,-0.945721,0.943298,-0.946418,-0.945241,-0.911717,-0.896022,-0.938752,-0.946279,-0.944734,-1.000000,-0.938145,-0.951302,-0.950058,-0.938368,-0.941523,-0.951194,-0.947413,-0.932700,-0.947607,-0.939237,-0.824367,-0.912502,-0.938132,-0.946343,-0.949123
-1.000000,-0.947256,-0.946718,-0.950133,-0.944968,-0.942519,-0.946462,-0.946545,0.940055,-0.945263,-0.941426,-0.907833,-0.892528,-0.940013,-0.949320,-0.949476,-1.000000,-0.942382,-0.953366,-0.952549,-0.945953,-0.946038,-0.951303,-0.947873,-0.932182,-0.947909,-0.939737,-0.841256,-0.908343,-0.941403,-0.950058,-0.953235
-1.000000,-0.947236,-0.948719,-0.952771,-0.942733,-0.943583,-0.946974,-0.947670,0.967268,-0.948454,-0.947453,-0.915693,-0.907601,-0.944187,-0.952472,-0.951031,-1.000000,-0.943281,-0.954001,-0.952677,-0.945136,-0.946865,-0.952225,-0.949935,-0.936448,-0.950403,-0.941735,-0.857486,-0.920572,-0.942976,-0.950818,-0.954272
-1.000000,-0.947162,-0.948833,-0.952478,-0.946178,-0.943690,-0.943895,-0.946191,1.000000,-0.947984,-0.946723,-0.913095,-0.902882,-0.942773,-0.951945,-0.951396,-1.000000,-0.942392,-0.953174,-0.951612,-0.943972,-0.941027,-0.947460,-0.947113,-0.934542,-0.949685,-0.941324,-0.841096,-0.915766,-0.940410,-0.949995,-0.954142
-1.000000,-0.945813,-0.946755,-0.950275,-0.945039,-0.941823,-0.945716,-0.948158,0.986522,-0.948945,-0.944333,-0.909449,-0.896791,-0.939910,-0.949028,-0.950288,-1.000000,-0.941681,-0.951922,-0.951322,-0.944692,-0.944833,-0.951221,-0.949771,-0.936888,-0.948881,-0.939432,-0.891335,-0.912197,-0.941842,-0.950034,-0.952996
-1.000000,-0.946869,-0.949760,-0.952857,-0.945337,-0.936713,-0.944860,-0.947913,0.991694,-0.949596,-0.947129,-0.911906,-0.896814,-0.941462,-0.952941,-0.952349,-1.000000,-0.941926,-0.955992,-0.954347,-0.946159,-0.944958,-0.951745,-0.950480,-0.937360,-0.951098,-0.941843,-0.908722,-0.911116,-0.940792,-0.950969,-0.954705
-1.000000,-0.949955,-0.952242,-0.951933,-0.938804,-0.946678,-0.957338,-0.962262,-0.964260,-0.962889,-0.961181,-0.963572,-0.941131,-0.934989,-0.942530,-0.956267,-1.000000,-0.946875,-0.952155,-0.943331,-0.941349,-0.946842,-0.960437,-0.965895,-0.964176,-0.961921,-0.965469,-0.964799,-0.941785,-0.937162,-0.944684,-0.957898
-1.000000,-0.944704,-0.950351,-0.947686,-0.942989,-0.947810,-0.956379,-0.961097,-0.963462,-0.961635,-0.961108,-0.962592,-0.936478,-0.933094,-0.941395,-0.955791,-1.000000,-0.945817,-0.951884,-0.943527,-0.939579,-0.944811,-0.958646,-0.963736,-0.963098,-0.962539,-0.964445,-0.965189,-0.949369,-0.944578,-0.946306,-0.957401
-1.000000,-0.954249,-0.956044,-0.955255,-0.944262,-0.946715,-0.957850,-0.964287,-0.966575,-0.964665,-0.964015,-0.965778,-0.941666,-0.941464,-0.945686,-0.957629,-1.000000,-0.948828,-0.956721,-0.949673,-0.942942,-0.946070,-0.960714,-0.967830,-0.966340,-0.963048,-0.966962,-0.967719,-0.947636,-0.941852,-0.950577,-0.961256
-1.000000,-0.953365,-0.954468,-0.955101,-0.942537,-0.948439,-0.958290,-0.965105,-0.967090,-0.965695,-0.964099,-0.966212,-0.943019,-0.941250,-0.948642,-0.959242,-1.000000,-0.945362,-0.956450,-0.950469,-0.943368,-0.947107,-0.960604,-0.967706,-0.966557,-0.964340,-0.967503,-0.967651,-0.949993,-0.939980,-0.949587,-0.960287
-1.000000,-0.951123,-0.954132,-0.955379,-0.943231,-0.948670,-0.958732,-0.964111,-0.965704,-0.964504,-0.961856,-0.965079,-0.941769,-0.940579,-0.946261,-0.957905,-1.000000,-0.948568,-0.957373,-0.950631,-0.943206,-0.946843,-0.960450,-0.966527,-0.965428,-0.964161,-0.966581,-0.967053,-0.949145,-0.943778,-0.948717,-0.959770
-1.000000,-0.954404,-0.954365,-0.955560,-0.945055,-0.949796,-0.959645,-0.965975,-0.967340,-0.965400,-0.963064,-0.965873,-0.939551,-0.941843,-0.946157,-0.958521,-1.000000,-0.948037,-0.957234,-0.951577,-0.943222,-0.948578,-0.962127,-0.968746,-0.967508,-0.964598,-0.966675,-0.967635,-0.946064,-0.942187,-0.950040,-0.959889
-1.000000,-0.946545,-0.953267,-0.954791,-0.942380,-0.945477,-0.956687,-0.963677,-0.965693,-0.964096,-0.962409,-0.964950,-0.940507,-0.937752,-0.948854,-0.955665,-1.000000,-0.942808,-0.956112,-0.951136,-0.945013,-0.947463,-0.960157,-0.966648,-0.965643,-0.961602,-0.965853,-0.966985,-0.948834,-0.937454,-0.948396,-0.957415
-1.000000,-0.951216,-0.950561,-0.954987,-0.941636,-0.946824,-0.958535,-0.964788,-0.965753,-0.963873,-0.963418,-0.964668,-0.940411,-0.940371,-0.943451,-0.957703,-1.000000,-0.945683,-0.954917,-0.950659,-0.943094,-0.947791,-0.960331,-0.966539,-0.965168,-0.964024,-0.967088,-0.967072,-0.949251,-0.939976,-0.945867,-0.957425
-1.000000,-0.950036,-0.951785,-0.952842,-0.935214,-0.937677,-0.953108,-0.961004,-0.962642,-0.961362,-0.961518,-0.963693,-0.946012,-0.943844,-0.952521,-0.958305,-1.000000,-0.946578,-0.952445,-0.947455,-0.938221,-0.942031,-0.957720,-0.964119,-0.962950,-0.960385,-0.962642,-0.963865,-0.951447,-0.936147,-0.943698,-0.956229
-1.000000,-0.948880,-0.950634,-0.950360,-0.939583,-0.937408,-0.952822,-0.959665,-0.960845,-0.959439,-0.959933,-0.962258,-0.949199,-0.946806,-0.953465,-0.958455,-1.000000,-0.946460,-0.953579,-0.950073,-0.942887,-0.934627,-0.953318,-0.962162,-0.959926,-0.957297,-0.960618,-0.962558,-0.949672,-0.936304,-0.940056,-0.956591
-1.000000,-0.949341,-0.951882,-0.954882,-0.944697,-0.946587,-0.953731,-0.960757,-0.961876,-0.958970,-0.958522,-0.962199,-0.947659,-0.946996,-0.955407,-0.960974,-1.000000,-0.945383,-0.955578,-0.950689,-0.942143,-0.942999,-0.956000,-0.963710,-0.962899,-0.959994,-0.960035,-0.963422,-0.951269,-0.934087,-0.944584,-0.958109
-1.000000,-0.949910,-0.951482,-0.953555,-0.946028,-0.947172,-0.956184,-0.963388,-0.964658,-0.962614,-0.960999,-0.964483,-0.948269,-0.948376,-0.952635,-0.961275,-1.000000,-0.946928,-0.953525,-0.949621,-0.941622,-0.944325,-0.958628,-0.965682,-0.965000,-0.962122,-0.963592,-0.965575,-0.949298,-0.941878,-0.945535,-0.959292
-1.000000,-0.951447,-0.951893,-0.953343,-0.946283,-0.946276,-0.955714,-0.963205,-0.964704,-0.963169,-0.962451,-0.965176,-0.948371,-0.947880,-0.954106,-0.960935,-1.000000,-0.944948,-0.952782,-0.948608,-0.939434,-0.940792,-0.957273,-0.965864,-0.964932,-0.962003,-0.964007,-0.966249,-0.948608,-0.942759,-0.948483,-0.959639
-1.000000,-0.955003,-0.954555,-0.954825,-0.947787,-0.950062,-0.957250,-0.963480,-0.964226,-0.962783,-0.962859,-0.963668,-0.945662,-0.948269,-0.953490,-0.961276,-1.000000,-0.947564,-0.955248,-0.950384,-0.942638,-0.945612,-0.959439,-0.965950,-0.964369,-0.961709,-0.964487,-0.964808,-0.949870,-0.937044,-0.945203,-0.959612
-1.000000,-0.950556,-0.949580,-0.951355,-0.945330,-0.948675,-0.955166,-0.959780,-0.959261,-0.956511,-0.958823,-0.960886,-0.940225,-0.938474,-0.947835,-0.954117,-1.000000,-0.943618,-0.948343,-0.947782,-0.938353,-0.943239,-0.957532,-0.962415,-0.959697,-0.956488,-0.961451,-0.962287,-0.946812,-0.937057,-0.948954,-0.956639
-1.000000,-0.952523,-0.951466,-0.949825,-0.942292,-0.947138,-0.954963,-0.960060,-0.961707,-0.960317,-0.958692,-0.962256,-0.945732,-0.943443,-0.944967,-0.951716,-1.000000,-0.941008,-0.953443,-0.946928,-0.936561,-0.943595,-0.957486,-0.963273,-0.961046,-0.958624,-0.962135,-0.962930,-0.946091,-0.937052,-0.946321,-0.953342
-1.000000,-0.952019,-0.951122,-0.951222,-0.940121,-0.948970,-0.956473,-0.962995,-0.963793,-0.959854,-0.960571,-0.963878,-0.945087,-0.943711,-0.950877,-0.957376,-1.000000,-0.942216,-0.950657,-0.946732,-0.937949,-0.943974,-0.956919,-0.964333,-0.962884,-0.959914,-0.962702,-0.964177,-0.940981,-0.939190,-0.945119,-0.956496
-1.000000,-0.948840,-0.952021,-0.951712,-0.940398,-0.947153,-0.954965,-0.962372,-0.962147,-0.959420,-0.959944,-0.963403,-0.945191,-0.942570,-0.951097,-0.956276,-1.000000,-0.941431,-0.951866,-0.947131,-0.937620,-0.939996,-0.954777,-0.963000,-0.961319,-0.958714,-0.962282,-0.964151,-0.948904,-0.938072,-0.943040,-0.953950
-1.000000,-0.945609,-0.943972,-0.938773,-0.927372,-0.937474,-0.945653,-0.955481,-0.958591,-0.955845,-0.958224,-0.962093,-0.944362,-0.944009,-0.949887,-0.955094,-1.000000,-0.928082,-0.941368,-0.935313,-0.922735,-0.923643,-0.946074,-0.958519,-0.959205,-0.957658,-0.959107,-0.963358,-0.946279,-0.940150,-0.945484,-0.954073
-1.000000,-0.944190,-0.947997,-0.948070,-0.934962,-0.936327,-0.950098,-0.958869,-0.959693,-0.957052,-0.958119,-0.961460,-0.944816,-0.943259,-0.950428,-0.956266,-1.000000,-0.941226,-0.948899,-0.946714,-0.933917,-0.936718,-0.951418,-0.960398,-0.960469,-0.958642,-0.960334,-0.962190,-0.947614,-0.936179,-0.940883,-0.952584
-1.000000,-0.947067,-0.949734,-0.949338,-0.939365,-0.941591,-0.949541,-0.956770,-0.957395,-0.951670,-0.952714,-0.953682,-0.935080,-0.928887,-0.945863,-0.951457,-1.000000,-0.940173,-0.948439,-0.946863,-0.937397,-0.935660,-0.948860,-0.957134,-0.956451,-0.953768,-0.954204,-0.953077,-0.936063,-0.917149,-0.925186,-0.944437
-1.000000,-0.948399,-0.946083,-0.949494,-0.937252,-0.943643,-0.951441,-0.958470,-0.958226,-0.957497,-0.959408,-0.960771,-0.942186,-0.937825,-0.949600,-0.957116,-1.000000,-0.944803,-0.947588,-0.947926,-0.939170,-0.935419,-0.948528,-0.958308,-0.957178,-0.956722,-0.960248,-0.960783,-0.945063,-0.927563,-0.933545,-0.952935
-1.000000,-0.948361,-0.950542,-0.950812,-0.942547,-0.947578,-0.953972,-0.960100,-0.960697,-0.958630,-0.959925,-0.961428,-0.939966,-0.938586,-0.949245,-0.957592,-1.000000,-0.945877,-0.950488,-0.947105,-0.936650,-0.939411,-0.952839,-0.961250,-0.960937,-0.959074,-0.961003,-0.961728,-0.943641,-0.930736,-0.938389,-0.955151
-1.000000,-0.948726,-0.951844,-0.951972,-0.942483,-0.948340,-0.955176,-0.961035,-0.961274,-0.958434,-0.960162,-0.961326,-0.942679,-0.940452,-0.950353,-0.959857,-1.000000,-0.948127,-0.948866,-0.947107,-0.937976,-0.940612,-0.953303,-0.961399,-0.961562,-0.958816,-0.960613,-0.961408,-0.944266,-0.929410,-0.935957,-0.954668
-1.000000,-0.942594,-0.947117,-0.950463,-0.943007,-0.947299,-0.953074,-0.958769,-0.959264,-0.956123,-0.956818,-0.960544,-0.942261,-0.938683,-0.948853,-0.958064,-1.000000,-0.944369,-0.948585,-0.946268,-0.936584,-0.938998,-0.951196,-0.959542,-0.959962,-0.956145,-0.959595,-0.960458,-0.942231,-0.927671,-0.938495,-0.953135
-1.000000,-0.947084,-0.951186,-0.951330,-0.942833,-0.946756,-0.953851,-0.960147,-0.960807,-0.957964,-0.959013,-0.960175,-0.942042,-0.936927,-0.950394,-0.958550,-1.000000,-0.946703,-0.951313,-0.947243,-0.937566,-0.938566,-0.952316,-0.960783,-0.961054,-0.958181,-0.960513,-0.961603,-0.942303,-0.931338,-0.937977,-0.954638
-1.000000,-0.945887,-0.950265,-0.950859,-0.943982,-0.947418,-0.952780,-0.958621,-0.959960,-0.956418,-0.959096,-0.961636,-0.942375,-0.940340,-0.946409,-0.957523,-1.000000,-0.944703,-0.948746,-0.946232,-0.936794,-0.937962,-0.950941,-0.959068,-0.959856,-0.958446,-0.959623,-0.961769,-0.944957,-0.931125,-0.940487,-0.954796
-1.000000,-0.942574,-0.950304,-0.951458,-0.943532,-0.947349,-0.953018,-0.959352,-0.960646,-0.957600,-0.957967,-0.961718,-0.943863,-0.940409,-0.949965,-0.957644,-1.000000,-0.945435,-0.950511,-0.946016,-0.936819,-0.937841,-0.951541,-0.960408,-0.961155,-0.958099,-0.959318,-0.961988,-0.944872,-0.932143,-0.940103,-0.953899
-1.000000,-0.942331,-0.949604,-0.950686,-0.944656,-0.947687,-0.953955,-0.960400,-0.960227,-0.957581,-0.958415,-0.961612,-0.943012,-0.938466,-0.950002,-0.956870,-1.000000,-0.946585,-0.950206,-0.945781,-0.935659,-0.937995,-0.951536,-0.960183,-0.960414,-0.957332,-0.960146,-0.962266,-0.945404,-0.932366,-0.941032,-0.954885
-1.000000,-0.944047,-0.949442,-0.950366,-0.944543,-0.948392,-0.954062,-0.960304,-0.960426,-0.956675,-0.958193,-0.961121,-0.942890,-0.938566,-0.949022,-0.956739,-1.000000,-0.943471,-0.952712,-0.948175,-0.936984,-0.938609,-0.951559,-0.960398,-0.960706,-0.957316,-0.959267,-0.961142,-0.945216,-0.930805,-0.941628,-0.954777
-1.000000,-0.944958,-0.949994,-0.951168,-0.945099,-0.948239,-0.954071,-0.960269,-0.960294,-0.956704,-0.957881,-0.961508,-0.943481,-0.940305,-0.949625,-0.954615,-1.000000,-0.943407,-0.951929,-0.950124,-0.939043,-0.940237,-0.950869,-0.960006,-0.960694,-0.957586,-0.959141,-0.961541,-0.944416,-0.929358,-0.940110,-0.952268
-1.000000,-0.946933,-0.951691,-0.951847,-0.947041,-0.949175,-0.954654,-0.960471,-0.960373,-0.956520,-0.957285,-0.960569,-0.941736,-0.940546,-0.949217,-0.957064,-1.000000,-0.944885,-0.953507,-0.950638,-0.939527,-0.941942,-0.952353,-0.960308,-0.960432,-0.957119,-0.957954,-0.960935,-0.945616,-0.928797,-0.938725,-0.954311
-1.000000,-0.944630,-0.950902,-0.950894,-0.946271,-0.947139,-0.953614,-0.959657,-0.960025,-0.953725,-0.956205,-0.960738,-0.942470,-0.937244,-0.944243,-0.954260,-1.000000,-0.943443,-0.952225,-0.949110,-0.935861,-0.940155,-0.951169,-0.959427,-0.959424,-0.956922,-0.958919,-0.960947,-0.937176,-0.928925,-0.939636,-0.954180
-1.000000,-0.943484,-0.946672,-0.945086,-0.940811,-0.938270,-0.947537,-0.956439,-0.958806,-0.955518,-0.956088,-0.960036,-0.944515,-0.938508,-0.945125,-0.952520,-1.000000,-0.941138,-0.949143,-0.943865,-0.926066,-0.933811,-0.947429,-0.956877,-0.958221,-0.956950,-0.954062,-0.960024,-0.944039,-0.929744,-0.937640,-0.951325
-1.000000,-0.942068,-0.950659,-0.951289,-0.946252,-0.944443,-0.952475,-0.959903,-0.960301,-0.956350,-0.958530,-0.961678,-0.944954,-0.939881,-0.947449,-0.954755,-1.000000,-0.939843,-0.954008,-0.948730,-0.935997,-0.939518,-0.951311,-0.959725,-0.959769,-0.957685,-0.958253,-0.961704,-0.946091,-0.929615,-0.939328,-0.954260
-1.000000,-0.945745,-0.951680,-0.949947,-0.946652,-0.947575,-0.953517,-0.959394,-0.960090,-0.956589,-0.958103,-0.961317,-0.942632,-0.938934,-0.946640,-0.956788,-1.000000,-0.946536,-0.954205,-0.947215,-0.935676,-0.939997,-0.952436,-0.959686,-0.959655,-0.957715,-0.958637,-0.961477,-0.946138,-0.928855,-0.939081,-0.955744
-1.000000,-0.944130,-0.947223,-0.946067,-0.942728,-0.943682,-0.950258,-0.954273,-0.954141,-0.949143,-0.953154,-0.956317,-0.944821,-0.930470,-0.944660,-0.953290,-1.000000,-0.943612,-0.946826,-0.943139,-0.934017,-0.938170,-0.948981,-0.954643,-0.953666,-0.947172,-0.952275,-0.956262,-0.947670,-0.922679,-0.931922,-0.950977
-1.000000,-0.947607,-0.953360,-0.952224,-0.946614,-0.949025,-0.954268,-0.958486,-0.960390,-0.957449,-0.958894,-0.961889,-0.946553,-0.940112,-0.947628,-0.955721,-1.000000,-0.943802,-0.955577,-0.949939,-0.938357,-0.940503,-0.953853,-0.961163,-0.960968,-0.958101,-0.959331,-0.962347,-0.947525,-0.930045,-0.934995,-0.951824
-1.000000,-0.944917,-0.951947,-0.952271,-0.946510,-0.945983,-0.951061,-0.959555,-0.961162,-0.956526,-0.959141,-0.962798,-0.943121,-0.929065,-0.947163,-0.956081,-1.000000,-0.943317,-0.954769,-0.947819,-0.929387,-0.931358,-0.949534,-0.960374,-0.961592,-0.959542,-0.959321,-0.963032,-0.945126,-0.920975,-0.931239,-0.952425
-1.000000,-0.947835,-0.953184,-0.952281,-0.946841,-0.949981,-0.956729,-0.961683,-0.962490,-0.958071,-0.959037,-0.963372,-0.944766,-0.934174,-0.942651,-0.956346,-1.000000,-0.946878,-0.954782,-0.949855,-0.940437,-0.943754,-0.955393,-0.962491,-0.962349,-0.959382,-0.960805,-0.964171,-0.950549,-0.931981,-0.941229,-0.956068
-1.000000,-0.945251,-0.952635,-0.947274,-0.935934,-0.945160,-0.955740,-0.960019,-0.960546,-0.957270,-0.958688,-0.962482,-0.936579,-0.931244,-0.948958,-0.955502,-1.000000,-0.940239,-0.954236,-0.942465,-0.931995,-0.941427,-0.954765,-0.960962,-0.961318,-0.959042,-0.960300,-0.962860,-0.946916,-0.931307,-0.942460,-0.954286
-1.000000,-0.940489,-0.945769,-0.942130,-0.935662,-0.939915,-0.948902,-0.953695,-0.955094,-0.950824,-0.952823,-0.956008,-0.938629,-0.933482,-0.946578,-0.955421,-1.000000,-0.942293,-0.951508,-0.940753,-0.929812,-0.934900,-0.948363,-0.956299,-0.956648,-0.952554,-0.954026,-0.957102,-0.944987,-0.927595,-0.940095,-0.954302
-1.000000,-0.939690,-0.948995,-0.948686,-0.942559,-0.946998,-0.954036,-0.958054,-0.959646,-0.955900,-0.954335,-0.960243,-0.942152,-0.930165,-0.946517,-0.952411,-1.000000,-0.941862,-0.951391,-0.946389,-0.936133,-0.940432,-0.953691,-0.960468,-0.960531,-0.956318,-0.956981,-0.960520,-0.945915,-0.929276,-0.934931,-0.949655
-1.000000,-0.944193,-0.949993,-0.948473,-0.941329,-0.945831,-0.955731,-0.959407,-0.961104,-0.958670,-0.958430,-0.962087,-0.945601,-0.937508,-0.946422,-0.955039,-1.000000,-0.940187,-0.953080,-0.945253,-0.937041,-0.942269,-0.955009,-0.961542,-0.961606,-0.958397,-0.958510,-0.962046,-0.945659,-0.929585,-0.937282,-0.951800
-1.000000,-0.944216,-0.950081,-0.949703,-0.942969,-0.946259,-0.952740,-0.958395,-0.958447,-0.955123,-0.957769,-0.961937,-0.947657,-0.939548,-0.947297,-0.954317,-1.000000,-0.939474,-0.954296,-0.946960,-0.936031,-0.939290,-0.950555,-0.958805,-0.959265,-0.956285,-0.958416,-0.962056,-0.938918,-0.933941,-0.941570,-0.952401
-1.000000,-0.944992,-0.949223,-0.948543,-0.944948,-0.946478,-0.953054,-0.959548,-0.961519,-0.958521,-0.960324,-0.963333,-0.948353,-0.942076,-0.945387,-0.955216,-1.000000,-0.940068,-0.951991,-0.946668,-0.935971,-0.939950,-0.954195,-0.962490,-0.962950,-0.959908,-0.960228,-0.963574,-0.946680,-0.935924,-0.943182,-0.955716
-1.000000,-0.942769,-0.946290,-0.948947,-0.938935,-0.942607,-0.948028,-0.955022,-0.957983,-0.957170,-0.955676,-0.961080,-0.950697,-0.941327,-0.946983,-0.953554,-1.000000,-0.936068,-0.953204,-0.948847,-0.938138,-0.936051,-0.949855,-0.957995,-0.959906,-0.955337,-0.956033,-0.961609,-0.950588,-0.934814,-0.940645,-0.950371
-1.000000,-0.943029,-0.952496,-0.952611,-0.946276,-0.950330,-0.956181,-0.960707,-0.962186,-0.960173,-0.959394,-0.964119,-0.950214,-0.943482,-0.948988,-0.955684,-1.000000,-0.939199,-0.956905,-0.949156,-0.939025,-0.946666,-0.958274,-0.963669,-0.963059,-0.959307,-0.960461,-0.963872,-0.950817,-0.928062,-0.936312,-0.951937
-1.000000,-0.943168,-0.950074,-0.946000,-0.941142,-0.944483,-0.951442,-0.956745,-0.958418,-0.955169,-0.954008,-0.959261,-0.941964,-0.933342,-0.944440,-0.952478,-1.000000,-0.938078,-0.952893,-0.945032,-0.938828,-0.942313,-0.953117,-0.957886,-0.955603,-0.955430,-0.956249,-0.960286,-0.946205,-0.930594,-0.941411,-0.951134
-1.000000,-0.945532,-0.952236,-0.950878,-0.943080,-0.947441,-0.954883,-0.959734,-0.960714,-0.955373,-0.955585,-0.964463,-0.951535,-0.942917,-0.947755,-0.954710,-1.000000,-0.938821,-0.954249,-0.947926,-0.940256,-0.945224,-0.956436,-0.960647,-0.954797,-0.956986,-0.959990,-0.965914,-0.952063,-0.939428,-0.951201,-0.956219
-1.000000,-0.946359,-0.952471,-0.950742,-0.945675,-0.949134,-0.956631,-0.961350,-0.963030,-0.960195,-0.959509,-0.966110,-0.951845,-0.942810,-0.947475,-0.956394,-1.000000,-0.940731,-0.957152,-0.950906,-0.940247,-0.946533,-0.958495,-0.963708,-0.961356,-0.960710,-0.962841,-0.967549,-0.954363,-0.942589,-0.949422,-0.957348
-1.000000,-0.945752,-0.950913,-0.950024,-0.945493,-0.949858,-0.956957,-0.961215,-0.962643,-0.960025,-0.959530,-0.966153,-0.950772,-0.941400,-0.942528,-0.957106,-1.000000,-0.942145,-0.956241,-0.949933,-0.939488,-0.946787,-0.958821,-0.963418,-0.960577,-0.960461,-0.962800,-0.967574,-0.950297,-0.941666,-0.951324,-0.957928
-1.000000,-0.942899,-0.949507,-0.949645,-0.945213,-0.947709,-0.954896,-0.960153,-0.961355,-0.958263,-0.957057,-0.963419,-0.946858,-0.942556,-0.948591,-0.956443,-1.000000,-0.940323,-0.956424,-0.950297,-0.938254,-0.944743,-0.957150,-0.962618,-0.960100,-0.957909,-0.961386,-0.965779,-0.952756,-0.942608,-0.951331,-0.957114
-1.000000,-0.945409,-0.949283,-0.945642,-0.944366,-0.945620,-0.954083,-0.959669,-0.961627,-0.957886,-0.957117,-0.963486,-0.942990,-0.941725,-0.946015,-0.955071,-1.000000,-0.936895,-0.953390,-0.947771,-0.936715,-0.944096,-0.956076,-0.962019,-0.959552,-0.960411,-0.961302,-0.965729,-0.952308,-0.938975,-0.949268,-0.955029
-1.000000,-0.946042,-0.950059,-0.947663,-0.943350,-0.946486,-0.954722,-0.959865,-0.962065,-0.958767,-0.957111,-0.964267,-0.949085,-0.941736,-0.944993,-0.954273,-1.000000,-0.938883,-0.954451,-0.948748,-0.936928,-0.944611,-0.957028,-0.962251,-0.960049,-0.960450,-0.959360,-0.965613,-0.951281,-0.938225,-0.950210,-0.955700
-1.000000,-0.946108,-0.949711,-0.948706,-0.943873,-0.946494,-0.954441,-0.960061,-0.962290,-0.959856,-0.956844,-0.965403,-0.949587,-0.939573,-0.945855,-0.955154,-1.000000,-0.939179,-0.955270,-0.948749,-0.934676,-0.944140,-0.957092,-0.963136,-0.960099,-0.960362,-0.962392,-0.967511,-0.950815,-0.939457,-0.952293,-0.956966
-1.000000,-0.946156,-0.948959,-0.946781,-0.938260,-0.944387,-0.954565,-0.956469,-0.958384,-0.955981,-0.955881,-0.962679,-0.949180,-0.935973,-0.944202,-0.954413,-1.000000,-0.937773,-0.952983,-0.946480,-0.934001,-0.943990,-0.957427,-0.959905,-0.955301,-0.954260,-0.959989,-0.963290,-0.943315,-0.935496,-0.946967,-0.954077
-1.000000,-0.948591,-0.949217,-0.948040,-0.942143,-0.944790,-0.953054,-0.957371,-0.958934,-0.956380,-0.957227,-0.961568,-0.944068,-0.931662,-0.940718,-0.951370,-1.000000,-0.924857,-0.950947,-0.946204,-0.932330,-0.942741,-0.955206,-0.958801,-0.955825,-0.955149,-0.960548,-0.963292,-0.945513,-0.936996,-0.945204,-0.949788
-1.000000,-0.949123,-0.950038,-0.948910,-0.942456,-0.944888,-0.954695,-0.960068,-0.961546,-0.958914,-0.959912,-0.966391,-0.948632,-0.940392,-0.944733,-0.955987,-1.000000,-0.938249,-0.952641,-0.947762,-0.933919,-0.943586,-0.956959,-0.962072,-0.959377,-0.960341,-0.962794,-0.967815,-0.950341,-0.942943,-0.950660,-0.955691
-1.000000,-0.947378,-0.950095,-0.948383,-0.942263,-0.943947,-0.953803,-0.959199,-0.960344,-0.956620,-0.958223,-0.964805,-0.949513,-0.939436,-0.946797,-0.954830,-1.000000,-0.935664,-0.952551,-0.947900,-0.933535,-0.942266,-0.955764,-0.961093,-0.958102,-0.958899,-0.961354,-0.966443,-0.947475,-0.942350,-0.952359,-0.956084
-1.000000,-0.950279,-0.952131,-0.950347,-0.943429,-0.944320,-0.955535,-0.960166,-0.960909,-0.957462,-0.958378,-0.965407,-0.949971,-0.935591,-0.944201,-0.955082,-1.000000,-0.937734,-0.953601,-0.949260,-0.936720,-0.943560,-0.957815,-0.962293,-0.958872,-0.959675,-0.963421,-0.966779,-0.948015,-0.942778,-0.952891,-0.955849
-1.000000,-0.950808,-0.951933,-0.950360,-0.942737,-0.944670,-0.954209,-0.959754,-0.961835,-0.959710,-0.959348,-0.965268,-0.948913,-0.940152,-0.945490,-0.953833,-1.000000,-0.937310,-0.952748,-0.948975,-0.935265,-0.942947,-0.956771,-0.962548,-0.959973,-0.960628,-0.963430,-0.967580,-0.949240,-0.943368,-0.952683,-0.955996
-1.000000,-0.949954,-0.951210,-0.949912,-0.942184,-0.944562,-0.955188,-0.959951,-0.960935,-0.958811,-0.958878,-0.963606,-0.947677,-0.939521,-0.948524,-0.956259,-1.000000,-0.939482,-0.952342,-0.948449,-0.936399,-0.944668,-0.957342,-0.961912,-0.958975,-0.959663,-0.963925,-0.965083,-0.948194,-0.940552,-0.952505,-0.955864
-1.000000,-0.947030,-0.948746,-0.945127,-0.936747,-0.943617,-0.953357,-0.956664,-0.957102,-0.955254,-0.955871,-0.959940,-0.941310,-0.936893,-0.946816,-0.953511,-1.000000,-0.940317,-0.950317,-0.946325,-0.935487,-0.941824,-0.955768,-0.958710,-0.954293,-0.957114,-0.962372,-0.963214,-0.946638,-0.937720,-0.949582,-0.954712
-1.000000,-0.944791,-0.951815,-0.949652,-0.943790,-0.946082,-0.954840,-0.959882,-0.960851,-0.957412,-0.958925,-0.963999,-0.944256,-0.939870,-0.946611,-0.954538,-1.000000,-0.939588,-0.952441,-0.947715,-0.936969,-0.944031,-0.956920,-0.961946,-0.958668,-0.960680,-0.964760,-0.965933,-0.947762,-0.938546,-0.949487,-0.955937
-1.000000,-0.944132,-0.949837,-0.947710,-0.942632,-0.945295,-0.954258,-0.959221,-0.959947,-0.957934,-0.957524,-0.962380,-0.941316,-0.936999,-0.945697,-0.952567,-1.000000,-0.937736,-0.950919,-0.945845,-0.934172,-0.943511,-0.955846,-0.960926,-0.957644,-0.959942,-0.962959,-0.965053,-0.947004,-0.937374,-0.949935,-0.953938
-1.000000,-0.945498,-0.948834,-0.948792,-0.939710,-0.942169,-0.951347,-0.957592,-0.959333,-0.957300,-0.956440,-0.961102,-0.944267,-0.934054,-0.945308,-0.949285,-1.000000,-0.936071,-0.949396,-0.948412,-0.931690,-0.938527,-0.952921,-0.959583,-0.957191,-0.958548,-0.958382,-0.962940,-0.947231,-0.934519,-0.939768,-0.949622
-1.000000,-0.946428,-0.947578,-0.949477,-0.942060,-0.943795,-0.952447,-0.959082,-0.960251,-0.958114,-0.957397,-0.962396,-0.940359,-0.935999,-0.940903,-0.948886,-1.000000,-0.932503,-0.947291,-0.949928,-0.936010,-0.938441,-0.955045,-0.961529,-0.958429,-0.959607,-0.962826,-0.964884,-0.943216,-0.939931,-0.949960,-0.952439
-1.000000,-0.945129,-0.946485,-0.942964,-0.936527,-0.938984,-0.949110,-0.954481,-0.956056,-0.952777,-0.952231,-0.958899,-0.939783,-0.928370,-0.944086,-0.953992,-1.000000,-0.943609,-0.947768,-0.938257,-0.933264,-0.934866,-0.951102,-0.956267,-0.955257,-0.955263,-0.958726,-0.961758,-0.939415,-0.939383,-0.949851,-0.957954
-1.000000,-0.949877,-0.948804,-0.950077,-0.943941,-0.943939,-0.953532,-0.958955,-0.960656,-0.956602,-0.955240,-0.960700,-0.944423,-0.939036,-0.944252,-0.954093,-1.000000,-0.944057,-0.952395,-0.950317,-0.939886,-0.941554,-0.956538,-0.962274,-0.959683,-0.959287,-0.959069,-0.961491,-0.940486,-0.940382,-0.952769,-0.956614
-1.000000,-0.951405,-0.950357,-0.950188,-0.946036,-0.947987,-0.955397,-0.961989,-0.962870,-0.958633,-0.956601,-0.963882,-0.944439,-0.937292,-0.946382,-0.958128,-1.000000,-0.943759,-0.951805,-0.951146,-0.941158,-0.946205,-0.957090,-0.963142,-0.960273,-0.961498,-0.962448,-0.965723,-0.944517,-0.944052,-0.958359,-0.960146
-1.000000,-0.950618,-0.949704,-0.948901,-0.944134,-0.944364,-0.954700,-0.960999,-0.962007,-0.958340,-0.957516,-0.962978,-0.944492,-0.941073,-0.948330,-0.957546,-1.000000,-0.944991,-0.952449,-0.951349,-0.940620,-0.945248,-0.957037,-0.962280,-0.959413,-0.960608,-0.963343,-0.964969,-0.941576,-0.943125,-0.957105,-0.961142
-1.000000,-0.953982,-0.952813,-0.952830,-0.946021,-0.948194,-0.958209,-0.962612,-0.962580,-0.958614,-0.957384,-0.963637,-0.942565,-0.937145,-0.949476,-0.958426,-1.000000,-0.945879,-0.952326,-0.950648,-0.942235,-0.948480,-0.959429,-0.963476,-0.960054,-0.961813,-0.963842,-0.964444,-0.936743,-0.941035,-0.957493,-0.961094
-1.000000,-0.940212,-0.949975,-0.954279,-0.946905,-0.945573,-0.956472,-0.962780,-0.963443,-0.959041,-0.958629,-0.965025,-0.945677,-0.941943,-0.948286,-0.958777,-1.000000,-0.945751,-0.953098,-0.951862,-0.940659,-0.947876,-0.959282,-0.963659,-0.960170,-0.962549,-0.964413,-0.966137,-0.943355,-0.943043,-0.956374,-0.961978
-1.000000,-0.947318,-0.951847,-0.952463,-0.945305,-0.944328,-0.953706,-0.960402,-0.962297,-0.958486,-0.957568,-0.961230,-0.942177,-0.935030,-0.946570,-0.948884,-1.000000,-0.928531,-0.947622,-0.950357,-0.939587,-0.941979,-0.956647,-0.962348,-0.959176,-0.960544,-0.961772,-0.961776,-0.933183,-0.933786,-0.938185,-0.948114
-1.000000,-0.944770,-0.950327,-0.951018,-0.943965,-0.944956,-0.951161,-0.956865,-0.958705,-0.954874,-0.955224,-0.962118,-0.945092,-0.939646,-0.949102,-0.956241,-1.000000,-0.943489,-0.950308,-0.949401,-0.939277,-0.942472,-0.953606,-0.958546,-0.955121,-0.958110,-0.962215,-0.963797,-0.939695,-0.939359,-0.954743,-0.959921
-1.000000,-0.947191,-0.947702,-0.946533,-0.937966,-0.938779,-0.953110,-0.959493,-0.961075,-0.959973,-0.957584,-0.962787,-0.935087,-0.938370,-0.946156,-0.956657,-1.000000,-0.940471,-0.946226,-0.948690,-0.938273,-0.943143,-0.956906,-0.960949,-0.959745,-0.959787,-0.963855,-0.963127,-0.934466,-0.940962,-0.956898,-0.959012
-1.000000,-0.946711,-0.947379,-0.949606,-0.944918,-0.943190,-0.951905,-0.958395,-0.958691,-0.954185,-0.958125,-0.961409,-0.942081,-0.941016,-0.948636,-0.955760,-1.000000,-0.940329,-0.948093,-0.950753,-0.937687,-0.939482,-0.953964,-0.960014,-0.958650,-0.957864,-0.960944,-0.961619,-0.935084,-0.937916,-0.953185,-0.957484
-1.000000,-0.940827,-0.950966,-0.953977,-0.946583,-0.943095,-0.953199,-0.960607,-0.961956,-0.957912,-0.956746,-0.961691,-0.941205,-0.942701,-0.948056,-0.953011,-1.000000,-0.938950,-0.945009,-0.947411,-0.936380,-0.940971,-0.955134,-0.962454,-0.962212,-0.960181,-0.960237,-0.961920,-0.934521,-0.939936,-0.954389,-0.956433
-1.000000,-0.948473,-0.951655,-0.954149,-0.947263,-0.944735,-0.953618,-0.959965,-0.961482,-0.959023,-0.958777,-0.962673,-0.942424,-0.943434,-0.944411,-0.955921,-1.000000,-0.938452,-0.946894,-0.950257,-0.940482,-0.942323,-0.955491,-0.961306,-0.961260,-0.961330,-0.963313,-0.963315,-0.932428,-0.941753,-0.951999,-0.957208
-1.000000,-0.949109,-0.954740,-0.956778,-0.948654,-0.947244,-0.956618,-0.962585,-0.963786,-0.959901,-0.959639,-0.963631,-0.941613,-0.943304,-0.950181,-0.955525,-1.000000,-0.940099,-0.950237,-0.952191,-0.942612,-0.946409,-0.959053,-0.964441,-0.963665,-0.962230,-0.963801,-0.964467,-0.935879,-0.938984,-0.947752,-0.955757
-1.000000,-0.943210,-0.953275,-0.957012,-0.944891,-0.943959,-0.955037,-0.961438,-0.962381,-0.959252,-0.959244,-0.962416,-0.941750,-0.939957,-0.950411,-0.955126,-1.000000,-0.940300,-0.949718,-0.953589,-0.943313,-0.942165,-0.956180,-0.963148,-0.962451,-0.960275,-0.963653,-0.963993,-0.938309,-0.931029,-0.947147,-0.955733
-1.000000,-0.945299,-0.950353,-0.955215,-0.944373,-0.942267,-0.951928,-0.960414,-0.962210,-0.958270,-0.958472,-0.962227,-0.944070,-0.939204,-0.941116,-0.948478,-1.000000,-0.935055,-0.948237,-0.952956,-0.940952,-0.934198,-0.954077,-0.962060,-0.962027,-0.959051,-0.963088,-0.963644,-0.938905,-0.936316,-0.945279,-0.950720
-1.000000,-0.949006,-0.951749,-0.956191,-0.948742,-0.948166,-0.955201,-0.960804,-0.961912,-0.959027,-0.955059,-0.961227,-0.941402,-0.937944,-0.940937,-0.946368,-1.000000,-0.930273,-0.950361,-0.952534,-0.942568,-0.942966,-0.956736,-0.962997,-0.962243,-0.960085,-0.960209,-0.962298,-0.935538,-0.933657,-0.943575,-0.946375
-1.000000,-0.947406,-0.953063,-0.956289,-0.948393,-0.948747,-0.956263,-0.961624,-0.962015,-0.958470,-0.958616,-0.962614,-0.946297,-0.945978,-0.949722,-0.954476,-1.000000,-0.941244,-0.951390,-0.952475,-0.946495,-0.947028,-0.958571,-0.962984,-0.961583,-0.959028,-0.962214,-0.963723,-0.937977,-0.935106,-0.946544,-0.955109
-1.000000,-0.947863,-0.951388,-0.954201,-0.948921,-0.947398,-0.956960,-0.963079,-0.964337,-0.960818,-0.960391,-0.964889,-0.945798,-0.941707,-0.948909,-0.955691,-1.000000,-0.937653,-0.950770,-0.953510,-0.944541,-0.946177,-0.958734,-0.964832,-0.964402,-0.962289,-0.964116,-0.965536,-0.938067,-0.939377,-0.946641,-0.957159
-1.000000,-0.948104,-0.953641,-0.957961,-0.949116,-0.948149,-0.956752,-0.962967,-0.964529,-0.961029,-0.960657,-0.965039,-0.945026,-0.940668,-0.946586,-0.954318,-1.000000,-0.942110,-0.952346,-0.954883,-0.943962,-0.945764,-0.958945,-0.964795,-0.964467,-0.962538,-0.964000,-0.965287,-0.936551,-0.938496,-0.947806,-0.956572
-1.000000,-0.946038,-0.948343,-0.946203,-0.935475,-0.940516,-0.947734,-0.953650,-0.955672,-0.954448,-0.954236,-0.957065,-0.918933,-0.928064,-0.939199,-0.952382,-1.000000,-0.935847,-0.950170,-0.943501,-0.931574,-0.942266,-0.948308,-0.956264,-0.957131,-0.956664,-0.957596,-0.959337,-0.928949,-0.920790,-0.924983,-0.945775
-1.000000,-0.940240,-0.945740,-0.943783,-0.928212,-0.937648,-0.943668,-0.950138,-0.952796,-0.951447,-0.951832,-0.956452,-0.932681,-0.926729,-0.941080,-0.950067,-1.000000,-0.937797,-0.949106,-0.938529,-0.921314,-0.939154,-0.945302,-0.954132,-0.954432,-0.953535,-0.953614,-0.958113,-0.939255,-0.928310,-0.924967,-0.944670
-1.000000,-0.944437,-0.947377,-0.946018,-0.934798,-0.940404,-0.948669,-0.953701,-0.955697,-0.952592,-0.954100,-0.958608,-0.933783,-0.932663,-0.942571,-0.951489,-1.000000,-0.938559,-0.950359,-0.942634,-0.930902,-0.944142,-0.949730,-0.956773,-0.957036,-0.954011,-0.957205,-0.960016,-0.941453,-0.931129,-0.926967,-0.945688
-1.000000,-0.939883,-0.942547,-0.941801,-0.932522,-0.936863,-0.944971,-0.949900,-0.951877,-0.950126,-0.949378,-0.954989,-0.932354,-0.929519,-0.942299,-0.950093,-1.000000,-0.934238,-0.942804,-0.939406,-0.926967,-0.940096,-0.947014,-0.952900,-0.952322,-0.949440,-0.953783,-0.955851,-0.931018,-0.929014,-0.923832,-0.943637
-1.000000,-0.942249,-0.944748,-0.941211,-0.931232,-0.934580,-0.943255,-0.949238,-0.951596,-0.949934,-0.950526,-0.954797,-0.924765,-0.930440,-0.944848,-0.948177,-1.000000,-0.932806,-0.942436,-0.935824,-0.925576,-0.937432,-0.944433,-0.952095,-0.953059,-0.952177,-0.954645,-0.956579,-0.937560,-0.922721,-0.924155,-0.941310
-1.000000,-0.941840,-0.943828,-0.940040,-0.930252,-0.933683,-0.941498,-0.947069,-0.949082,-0.948921,-0.947595,-0.951438,-0.931005,-0.930285,-0.941941,-0.943557,-1.000000,-0.929639,-0.943037,-0.933425,-0.927189,-0.937284,-0.943608,-0.949434,-0.950242,-0.948903,-0.950674,-0.952591,-0.938274,-0.916385,-0.915850,-0.934293
-1.000000,-0.943179,-0.947151,-0.943510,-0.932071,-0.937342,-0.947172,-0.951135,-0.952374,-0.950233,-0.948977,-0.954841,-0.933003,-0.932112,-0.946020,-0.951639,-1.000000,-0.934276,-0.946254,-0.938332,-0.931243,-0.943103,-0.950071,-0.954382,-0.954256,-0.951161,-0.952998,-0.956185,-0.940514,-0.926244,-0.923872,-0.943269
-1.000000,-0.942978,-0.946508,-0.943235,-0.932306,-0.933985,-0.945387,-0.950472,-0.951917,-0.950302,-0.949038,-0.953565,-0.930959,-0.930531,-0.946274,-0.951950,-1.000000,-0.934265,-0.945806,-0.939097,-0.928827,-0.938700,-0.948396,-0.953794,-0.953653,-0.950667,-0.952923,-0.954752,-0.935599,-0.918083,-0.916958,-0.941531
-1.000000,-0.941175,-0.946352,-0.943351,-0.932382,-0.936090,-0.945801,-0.950231,-0.951889,-0.950140,-0.948927,-0.953790,-0.930288,-0.932227,-0.945118,-0.950464,-1.000000,-0.936333,-0.945836,-0.939050,-0.929961,-0.940131,-0.948281,-0.953785,-0.953953,-0.950701,-0.953190,-0.955138,-0.939890,-0.923616,-0.922134,-0.942397
-1.000000,-0.943165,-0.946905,-0.943212,-0.933845,-0.938311,-0.947380,-0.950567,-0.951826,-0.950088,-0.948789,-0.953680,-0.931018,-0.931658,-0.943503,-0.950825,-1.000000,-0.934096,-0.945319,-0.938277,-0.929153,-0.941131,-0.949884,-0.953869,-0.953735,-0.949964,-0.952944,-0.954806,-0.937296,-0.921463,-0.922686,-0.942965
-1.000000,-0.942588,-0.946748,-0.944473,-0.937451,-0.935803,-0.946222,-0.949060,-0.950349,-0.948809,-0.947775,-0.952881,-0.929361,-0.928152,-0.941688,-0.951666,-1.000000,-0.936971,-0.945988,-0.939930,-0.931023,-0.941006,-0.949391,-0.952734,-0.952535,-0.949756,-0.952104,-0.954221,-0.940393,-0.924247,-0.922369,-0.943001
-1.000000,-0.941121,-0.945325,-0.941035,-0.931632,-0.935642,-0.944370,-0.947827,-0.948539,-0.947279,-0.945858,-0.950375,-0.927227,-0.923746,-0.941371,-0.949896,-1.000000,-0.935812,-0.944527,-0.936909,-0.928388,-0.940232,-0.947644,-0.951115,-0.950863,-0.947841,-0.949710,-0.951845,-0.937834,-0.923661,-0.920575,-0.940557
-1.000000,-0.941603,-0.946085,-0.943520,-0.935653,-0.931201,-0.944119,-0.947712,-0.948082,-0.944172,-0.944220,-0.947413,-0.923076,-0.920427,-0.944260,-0.948816,-1.000000,-0.935964,-0.945964,-0.940506,-0.929534,-0.939833,-0.946582,-0.950579,-0.950076,-0.946416,-0.947831,-0.947994,-0.931088,-0.907386,-0.910540,-0.937711
-1.000000,-0.943126,-0.947326,-0.945411,-0.938381,-0.937563,-0.946928,-0.950013,-0.950946,-0.949037,-0.947724,-0.951451,-0.927173,-0.926325,-0.937862,-0.950200,-1.000000,-0.935418,-0.946243,-0.940274,-0.930962,-0.940231,-0.949039,-0.953387,-0.953152,-0.950256,-0.951575,-0.952698,-0.933105,-0.919182,-0.919606,-0.941739
-1.000000,-0.940035,-0.946309,-0.945000,-0.936289,-0.937944,-0.946008,-0.948480,-0.949164,-0.947618,-0.945916,-0.948559,-0.924745,-0.927308,-0.940611,-0.949848,-1.000000,-0.933833,-0.944813,-0.939886,-0.930928,-0.940720,-0.948537,-0.951853,-0.951012,-0.947945,-0.949023,-0.949614,-0.933597,-0.920759,-0.918831,-0.940971
-1.000000,-0.937563,-0.943647,-0.943762,-0.936948,-0.938362,-0.945763,-0.948831,-0.949192,-0.946073,-0.946112,-0.949619,-0.927340,-0.923498,-0.937115,-0.949115,-1.000000,-0.933557,-0.942628,-0.940550,-0.932024,-0.939670,-0.948461,-0.952586,-0.951792,-0.948845,-0.947571,-0.950877,-0.935388,-0.920295,-0.916547,-0.938513
-1.000000,-0.941382,-0.945269,-0.943989,-0.937118,-0.938375,-0.948384,-0.950327,-0.950755,-0.947784,-0.947474,-0.950880,-0.928033,-0.925659,-0.930849,-0.948760,-1.000000,-0.936641,-0.945594,-0.941073,-0.930728,-0.942044,-0.950305,-0.953653,-0.952865,-0.949265,-0.950856,-0.952670,-0.936218,-0.920271,-0.920080,-0.941355
-1.000000,-0.942622,-0.943349,-0.944796,-0.937650,-0.936959,-0.947873,-0.950064,-0.950647,-0.946303,-0.945175,-0.950487,-0.926335,-0.922738,-0.934834,-0.949399,-1.000000,-0.933167,-0.944307,-0.937909,-0.932268,-0.942514,-0.950372,-0.953250,-0.951888,-0.948787,-0.949937,-0.952010,-0.935949,-0.917781,-0.918620,-0.940817
-1.000000,-0.942128,-0.944989,-0.945190,-0.936726,-0.937586,-0.947724,-0.950594,-0.951916,-0.949132,-0.944590,-0.950729,-0.926785,-0.926956,-0.935675,-0.948687,-1.000000,-0.933607,-0.945248,-0.940731,-0.928733,-0.941236,-0.950655,-0.953933,-0.953219,-0.950272,-0.949421,-0.952692,-0.934762,-0.919561,-0.916932,-0.939568
-1.000000,-0.941719,-0.940545,-0.942954,-0.934911,-0.935976,-0.948360,-0.951247,-0.951760,-0.947834,-0.944013,-0.950677,-0.927436,-0.924792,-0.935059,-0.949974,-1.000000,-0.935094,-0.943818,-0.937246,-0.926749,-0.940344,-0.950828,-0.954507,-0.953714,-0.949610,-0.948928,-0.952142,-0.933186,-0.919989,-0.919236,-0.941733
-1.000000,-0.943267,-0.946061,-0.943923,-0.934215,-0.936297,-0.948457,-0.951028,-0.951018,-0.947526,-0.945220,-0.951376,-0.930318,-0.929199,-0.936372,-0.951193,-1.000000,-0.937205,-0.945981,-0.939124,-0.925729,-0.937792,-0.950369,-0.954434,-0.952698,-0.950754,-0.950696,-0.952673,-0.935634,-0.922104,-0.925362,-0.944601
-1.000000,-0.942885,-0.942809,-0.943062,-0.933012,-0.935272,-0.943256,-0.944568,-0.948191,-0.940577,-0.941870,-0.949474,-0.930775,-0.931012,-0.934494,-0.949125,-1.000000,-0.933826,-0.939563,-0.935037,-0.927563,-0.933427,-0.947303,-0.951078,-0.951544,-0.947394,-0.947125,-0.951728,-0.936020,-0.923096,-0.925197,-0.943823
-1.000000,-0.943273,-0.944371,-0.945585,-0.937456,-0.938182,-0.948660,-0.952276,-0.952405,-0.949490,-0.945443,-0.951660,-0.931150,-0.929730,-0.933325,-0.951234,-1.000000,-0.935352,-0.943803,-0.940705,-0.932247,-0.938805,-0.949826,-0.954691,-0.954060,-0.951046,-0.950391,-0.952788,-0.935284,-0.913095,-0.921426,-0.942673
-1.000000,-0.944087,-0.943266,-0.944897,-0.933612,-0.937877,-0.949461,-0.953099,-0.953284,-0.949981,-0.946462,-0.952660,-0.929159,-0.930042,-0.937831,-0.952996,-1.000000,-0.939427,-0.946968,-0.942208,-0.932945,-0.940507,-0.951432,-0.955832,-0.954548,-0.951839,-0.951140,-0.953805,-0.934408,-0.920070,-0.923091,-0.945141
-1.000000,-0.944259,-0.945620,-0.946104,-0.937246,-0.939491,-0.949614,-0.953276,-0.953446,-0.950258,-0.946414,-0.951966,-0.928643,-0.928661,-0.939088,-0.953430,-1.000000,-0.940051,-0.947798,-0.942246,-0.933032,-0.940511,-0.951216,-0.956116,-0.954744,-0.951801,-0.950408,-0.953159,-0.934784,-0.922305,-0.924037,-0.945261
-1.000000,-0.945670,-0.944319,-0.943938,-0.935558,-0.939549,-0.948618,-0.951521,-0.951224,-0.947965,-0.943818,-0.950562,-0.931398,-0.932529,-0.938551,-0.953709,-1.000000,-0.939678,-0.946497,-0.942441,-0.933217,-0.939004,-0.949710,-0.954192,-0.952691,-0.949013,-0.948869,-0.951026,-0.936217,-0.919916,-0.925291,-0.946738
-1.000000,-0.944944,-0.945610,-0.947306,-0.935972,-0.937450,-0.946976,-0.951882,-0.952416,-0.949197,-0.944245,-0.951485,-0.936595,-0.930979,-0.935550,-0.953712,-1.000000,-0.938959,-0.946836,-0.942863,-0.931554,-0.937719,-0.948698,-0.954430,-0.953411,-0.949607,-0.949765,-0.951882,-0.934789,-0.916681,-0.924335,-0.946405
-1.000000,-0.945925,-0.947192,-0.947234,-0.936358,-0.938775,-0.949685,-0.953496,-0.953781,-0.950593,-0.947067,-0.953121,-0.936813,-0.932752,-0.941401,-0.954245,-1.000000,-0.939653,-0.948078,-0.943547,-0.934490,-0.939152,-0.951098,-0.956155,-0.954792,-0.952290,-0.951702,-0.953605,-0.936397,-0.916567,-0.918580,-0.943930
-1.000000,-0.943969,-0.944611,-0.944835,-0.938407,-0.940717,-0.950079,-0.953872,-0.954340,-0.951173,-0.945503,-0.952059,-0.907909,-0.927169,-0.939328,-0.953744,-1.000000,-0.939378,-0.947140,-0.942294,-0.934445,-0.940805,-0.951143,-0.956151,-0.955521,-0.953187,-0.950578,-0.954201,-0.933537,-0.916477,-0.924964,-0.947700
-1.000000,-0.946362,-0.949255,-0.947703,-0.940181,-0.941858,-0.950240,-0.954194,-0.953881,-0.949776,-0.943933,-0.952774,-0.930823,-0.929788,-0.939487,-0.955001,-1.000000,-0.940340,-0.950426,-0.943183,-0.935438,-0.941850,-0.951526,-0.956337,-0.955280,-0.952827,-0.950097,-0.954536,-0.934353,-0.917848,-0.927570,-0.948846
-1.000000,-0.943590,-0.946846,-0.945591,-0.938934,-0.940794,-0.950855,-0.954421,-0.953925,-0.948287,-0.945746,-0.952605,-0.931449,-0.930011,-0.940246,-0.953322,-1.000000,-0.937970,-0.948274,-0.942559,-0.936409,-0.940619,-0.951146,-0.956030,-0.955013,-0.952329,-0.951089,-0.952806,-0.930351,-0.915872,-0.916822,-0.942575
-1.000000,-0.942287,-0.946492,-0.948790,-0.942028,-0.943233,-0.951988,-0.956359,-0.955944,-0.949401,-0.948669,-0.954638,-0.933922,-0.932566,-0.935723,-0.949098,-1.000000,-0.926760,-0.941933,-0.943022,-0.938423,-0.941760,-0.951812,-0.957526,-0.957302,-0.954146,-0.951886,-0.955269,-0.935556,-0.914196,-0.925562,-0.944409
-1.000000,-0.943145,-0.948853,-0.948678,-0.938381,-0.939834,-0.947147,-0.953406,-0.953899,-0.951155,-0.946510,-0.952948,-0.933776,-0.930167,-0.937587,-0.949526,-1.000000,-0.935368,-0.947977,-0.945305,-0.937661,-0.936443,-0.946489,-0.955084,-0.955427,-0.952778,-0.950610,-0.954350,-0.936267,-0.915615,-0.923313,-0.943471
-1.000000,-0.943383,-0.945173,-0.942969,-0.931014,-0.935718,-0.945217,-0.953129,-0.954735,-0.950337,-0.948697,-0.955695,-0.931916,-0.933440,-0.939586,-0.953934,-1.000000,-0.930278,-0.942034,-0.942290,-0.940927,-0.936551,-0.948113,-0.956586,-0.957041,-0.953333,-0.952674,-0.957760,-0.938990,-0.914822,-0.930340,-0.949748
-1.000000,-0.942768,-0.950209,-0.950508,-0.940572,-0.939002,-0.947576,-0.955402,-0.956274,-0.952378,-0.949536,-0.955676,-0.933526,-0.933003,-0.935760,-0.950253,-1.000000,-0.933589,-0.948986,-0.947717,-0.939701,-0.937055,-0.949404,-0.957776,-0.958094,-0.954756,-0.953815,-0.956106,-0.935850,-0.917096,-0.926041,-0.942841
-1.000000,-0.940524,-0.950698,-0.951428,-0.942098,-0.945123,-0.953411,-0.958398,-0.958073,-0.953103,-0.950806,-0.956654,-0.931488,-0.933675,-0.935516,-0.954511,-1.000000,-0.942558,-0.949977,-0.948848,-0.942354,-0.944867,-0.954216,-0.960058,-0.958960,-0.956269,-0.954277,-0.957397,-0.937269,-0.919846,-0.931680,-0.951394
-1.000000,-0.942579,-0.949887,-0.948597,-0.940257,-0.943298,-0.950683,-0.955350,-0.954890,-0.951043,-0.948680,-0.954886,-0.933899,-0.932920,-0.937544,-0.954107,-1.000000,-0.941409,-0.948464,-0.944337,-0.933830,-0.942122,-0.951681,-0.957333,-0.956213,-0.951780,-0.951690,-0.955047,-0.938835,-0.918813,-0.931332,-0.950348
-1.000000,-0.944198,-0.949258,-0.946752,-0.935097,-0.940655,-0.949029,-0.954867,-0.955395,-0.950815,-0.947582,-0.954425,-0.934042,-0.933529,-0.938098,-0.954639,-1.000000,-0.942455,-0.950262,-0.944818,-0.935951,-0.937743,-0.949739,-0.956880,-0.957176,-0.954248,-0.950769,-0.955056,-0.939812,-0.919314,-0.932454,-0.951180
-1.000000,-0.944099,-0.949399,-0.949385,-0.934259,-0.945890,-0.953320,-0.958160,-0.958368,-0.953112,-0.950589,-0.955861,-0.927585,-0.932188,-0.933368,-0.953184,-1.000000,-0.939998,-0.951347,-0.947153,-0.939667,-0.943985,-0.953538,-0.959931,-0.959495,-0.956329,-0.953462,-0.956338,-0.937377,-0.917238,-0.929597,-0.948509
-1.000000,-0.946096,-0.950510,-0.949547,-0.938995,-0.945874,-0.953396,-0.958689,-0.959209,-0.954683,-0.952641,-0.958950,-0.936754,-0.939169,-0.940704,-0.957072,-1.000000,-0.940028,-0.951327,-0.947473,-0.939706,-0.943083,-0.953516,-0.960200,-0.960192,-0.957486,-0.955813,-0.960011,-0.943653,-0.924524,-0.937536,-0.953637
-1.000000,-0.942198,-0.947592,-0.947716,-0.938811,-0.944139,-0.952740,-0.957875,-0.958472,-0.953694,-0.951666,-0.956944,-0.935309,-0.934150,-0.936745,-0.955004,-1.000000,-0.935883,-0.950295,-0.944832,-0.937578,-0.943609,-0.952996,-0.959924,-0.959631,-0.956648,-0.954416,-0.957954,-0.939825,-0.922817,-0.936141,-0.952501
-1.000000,-0.945141,-0.950845,-0.948588,-0.938152,-0.944317,-0.951935,-0.956940,-0.956329,-0.951172,-0.949528,-0.955458,-0.933328,-0.936148,-0.942040,-0.955611,-1.000000,-0.940516,-0.952021,-0.947260,-0.938887,-0.942562,-0.951699,-0.958268,-0.958010,-0.954883,-0.951599,-0.957313,-0.938076,-0.922707,-0.934864,-0.953033
-1.000000,-0.944977,-0.949871,-0.948263,-0.937702,-0.943840,-0.951818,-0.957672,-0.957701,-0.950072,-0.947092,-0.952284,-0.927822,-0.931553,-0.942379,-0.953816,-1.000000,-0.938627,-0.951105,-0.946126,-0.938438,-0.941520,-0.951808,-0.959175,-0.959436,-0.954918,-0.950386,-0.954193,-0.943131,-0.918612,-0.926203,-0.947902
-1.000000,-0.944799,-0.951457,-0.948173,-0.937594,-0.943257,-0.951831,-0.958512,-0.959349,-0.953671,-0.950137,-0.956691,-0.933909,-0.934260,-0.941942,-0.952579,-1.000000,-0.939998,-0.952735,-0.946874,-0.938179,-0.940875,-0.951790,-0.959960,-0.960504,-0.956501,-0.954748,-0.957996,-0.944259,-0.926457,-0.935482,-0.952173
-1.000000,-0.942192,-0.950024,-0.946877,-0.938837,-0.940438,-0.950387,-0.957227,-0.958500,-0.953821,-0.949953,-0.956693,-0.932872,-0.934092,-0.944253,-0.953975,-1.000000,-0.936885,-0.950492,-0.946507,-0.936719,-0.939580,-0.950167,-0.958792,-0.959700,-0.955331,-0.953248,-0.957471,-0.942632,-0.926197,-0.938245,-0.953121
-1.000000,-0.945053,-0.953406,-0.946803,-0.939826,-0.940813,-0.951355,-0.958996,-0.960296,-0.950088,-0.947188,-0.957361,-0.935587,-0.935334,-0.944608,-0.954380,-1.000000,-0.936511,-0.954102,-0.948933,-0.940129,-0.940981,-0.952142,-0.960473,-0.961250,-0.958054,-0.952495,-0.958497,-0.944369,-0.925373,-0.940533,-0.953142
-1.000000,-0.945066,-0.954846,-0.951305,-0.940525,-0.943942,-0.952166,-0.958596,-0.959816,-0.956419,-0.955838,-0.956896,-0.935433,-0.935193,-0.943345,-0.954186,-1.000000,-0.938727,-0.954722,-0.950412,-0.940172,-0.942939,-0.952402,-0.959929,-0.960479,-0.957333,-0.955706,-0.957686,-0.945347,-0.925620,-0.937856,-0.951742
-1.000000,-0.946030,-0.955450,-0.952357,-0.941291,-0.945432,-0.953539,-0.959596,-0.960461,-0.955573,-0.954318,-0.955440,-0.928300,-0.933839,-0.942652,-0.955735,-1.000000,-0.941782,-0.955523,-0.950140,-0.940944,-0.943542,-0.953438,-0.961138,-0.961564,-0.957129,-0.953447,-0.956342,-0.944529,-0.925738,-0.939006,-0.954229
-1.000000,-0.946314,-0.955817,-0.953535,-0.942386,-0.942839,-0.952426,-0.959287,-0.960048,-0.956272,-0.955858,-0.956754,-0.933790,-0.935204,-0.943373,-0.954628,-1.000000,-0.941037,-0.955508,-0.952767,-0.943383,-0.943695,-0.953259,-0.960797,-0.960500,-0.957656,-0.956214,-0.957393,-0.940620,-0.924097,-0.936643,-0.953492
-1.000000,-0.946408,-0.953799,-0.952582,-0.943047,-0.946069,-0.953983,-0.958729,-0.959425,-0.955022,-0.954022,-0.956664,-0.932308,-0.932202,-0.942566,-0.953486,-1.000000,-0.940603,-0.954250,-0.950840,-0.942511,-0.946866,-0.954762,-0.960275,-0.960083,-0.956850,-0.955889,-0.958212,-0.943036,-0.925989,-0.935961,-0.952220
-1.000000,-0.946686,-0.956279,-0.952548,-0.941992,-0.945340,-0.953390,-0.957970,-0.959454,-0.955857,-0.955203,-0.957022,-0.933272,-0.936100,-0.944231,-0.955334,-1.000000,-0.943141,-0.956726,-0.953054,-0.942953,-0.946261,-0.955477,-0.961037,-0.959855,-0.956840,-0.956815,-0.958278,-0.944994,-0.926645,-0.938372,-0.954763
-1.000000,-0.944110,-0.948887,-0.947520,-0.940487,-0.940307,-0.950338,-0.955953,-0.957075,-0.953674,-0.952169,-0.950676,-0.928683,-0.930108,-0.942352,-0.954971,-1.000000,-0.941652,-0.955546,-0.951786,-0.939993,-0.941674,-0.952655,-0.958015,-0.958155,-0.954232,-0.952545,-0.951674,-0.933546,-0.921637,-0.928173,-0.951810
-1.000000,-0.943344,-0.953974,-0.949976,-0.940671,-0.940867,-0.949170,-0.957426,-0.958809,-0.954914,-0.953727,-0.955645,-0.932890,-0.933955,-0.941552,-0.952204,-1.000000,-0.937462,-0.950904,-0.945449,-0.936802,-0.938855,-0.950853,-0.959509,-0.960154,-0.955971,-0.954648,-0.956232,-0.938707,-0.925169,-0.937643,-0.952679
-1.000000,-0.945796,-0.956763,-0.953668,-0.943192,-0.943759,-0.952174,-0.958370,-0.959523,-0.956010,-0.954874,-0.955679,-0.932905,-0.930464,-0.939545,-0.946851,-1.000000,-0.937522,-0.955314,-0.949003,-0.937292,-0.943537,-0.953560,-0.960060,-0.960817,-0.956723,-0.955945,-0.956701,-0.940805,-0.923878,-0.934331,-0.947801
-1.000000,-0.945132,-0.956209,-0.953879,-0.942612,-0.946088,-0.953378,-0.958472,-0.958444,-0.953831,-0.952214,-0.953353,-0.932013,-0.930155,-0.940378,-0.951863,-1.000000,-0.942520,-0.955938,-0.951497,-0.942524,-0.946235,-0.954915,-0.960115,-0.959845,-0.954774,-0.953423,-0.954196,-0.934895,-0.922618,-0.930991,-0.950118
-1.000000,-0.945150,-0.957394,-0.952002,-0.940018,-0.938202,-0.953516,-0.959788,-0.960627,-0.956496,-0.955442,-0.955883,-0.931286,-0.930767,-0.937097,-0.949100,-1.000000,-0.943769,-0.957959,-0.950679,-0.938026,-0.940540,-0.955594,-0.961623,-0.961842,-0.958045,-0.956756,-0.956948,-0.932532,-0.921978,-0.934984,-0.952671
-1.000000,-0.941574,-0.944710,-0.943960,-0.941617,-0.942272,-0.950490,-0.956139,-0.959557,-0.956932,-0.947610,-0.950434,-0.917217,-0.929632,-0.937868,-0.948195,-1.000000,-0.935442,-0.949814,-0.946921,-0.939985,-0.943069,-0.953130,-0.959065,-0.960268,-0.953791,-0.951618,-0.952037,-0.930025,-0.921833,-0.932588,-0.946989
-1.000000,-0.952637,-0.957737,-0.955108,-0.946099,-0.947517,-0.952445,-0.958865,-0.958689,-0.953249,-0.953078,-0.955651,-0.935338,-0.937810,-0.938803,-0.952388,-1.000000,-0.941637,-0.959300,-0.951146,-0.947106,-0.947445,-0.954759,-0.961291,-0.960894,-0.957757,-0.952277,-0.956103,-0.935459,-0.930281,-0.937115,-0.956397
-1.000000,-0.951874,-0.958249,-0.956017,-0.944445,-0.946628,-0.954141,-0.959379,-0.960060,-0.956828,-0.956268,-0.957809,-0.938356,-0.933399,-0.934671,-0.955941,-1.000000,-0.945881,-0.957899,-0.952540,-0.943724,-0.948610,-0.956406,-0.961958,-0.961541,-0.958862,-0.957572,-0.958535,-0.931567,-0.928248,-0.934964,-0.956158
-1.000000,-0.952609,-0.951537,-0.950715,-0.939562,-0.946023,-0.951474,-0.954706,-0.955520,-0.952758,-0.952696,-0.952800,-0.935567,-0.933244,-0.935276,-0.954556,-1.000000,-0.943753,-0.951608,-0.949040,-0.942853,-0.946620,-0.953345,-0.957809,-0.957446,-0.954921,-0.953242,-0.953355,-0.935289,-0.927927,-0.931657,-0.954019
-1.000000,-0.948171,-0.950856,-0.949839,-0.942218,-0.943362,-0.951327,-0.955375,-0.955488,-0.951141,-0.951892,-0.953685,-0.937455,-0.934112,-0.937430,-0.955944,-1.000000,-0.944559,-0.952318,-0.945330,-0.939144,-0.945548,-0.953409,-0.957135,-0.956674,-0.952975,-0.952492,-0.954304,-0.936923,-0.928726,-0.933036,-0.953466
-1.000000,-0.946275,-0.948914,-0.948451,-0.939745,-0.942475,-0.948768,-0.954934,-0.955699,-0.951129,-0.951242,-0.952838,-0.936427,-0.931303,-0.939597,-0.958568,-1.000000,-0.941668,-0.947426,-0.942395,-0.943099,-0.945499,-0.953654,-0.958249,-0.957986,-0.953327,-0.951833,-0.954141,-0.937261,-0.925625,-0.932859,-0.955432
-1.000000,-0.952305,-0.953768,-0.949286,-0.939286,-0.943490,-0.956338,-0.959841,-0.960145,-0.955738,-0.954753,-0.956056,-0.941430,-0.933373,-0.943381,-0.957030,-1.000000,-0.942200,-0.954814,-0.946434,-0.945893,-0.947791,-0.958860,-0.962318,-0.961501,-0.958578,-0.954313,-0.955748,-0.938010,-0.928304,-0.929297,-0.951289
-1.000000,-0.947443,-0.956718,-0.955726,-0.944356,-0.947516,-0.956614,-0.960023,-0.959791,-0.956923,-0.954871,-0.956096,-0.940104,-0.931199,-0.942038,-0.956644,-1.000000,-0.946562,-0.958236,-0.953744,-0.948537,-0.949391,-0.958631,-0.962465,-0.961334,-0.958772,-0.956256,-0.956022,-0.937173,-0.925036,-0.929956,-0.953625
-1.000000,-0.950546,-0.956508,-0.955957,-0.944475,-0.945728,-0.954780,-0.959274,-0.959743,-0.956301,-0.955015,-0.956396,-0.940780,-0.933370,-0.943499,-0.957262,-1.000000,-0.943278,-0.955663,-0.952506,-0.947634,-0.948305,-0.957171,-0.961737,-0.961278,-0.957672,-0.956240,-0.956581,-0.938225,-0.932285,-0.934144,-0.954904
-1.000000,-0.952330,-0.956839,-0.956412,-0.947331,-0.948031,-0.957475,-0.961128,-0.961009,-0.956648,-0.955019,-0.956769,-0.940723,-0.933754,-0.942672,-0.956985,-1.000000,-0.947483,-0.957061,-0.952843,-0.950437,-0.949068,-0.960088,-0.963486,-0.962481,-0.959793,-0.956300,-0.956890,-0.937746,-0.932625,-0.933509,-0.955779
-1.000000,-0.951657,-0.955345,-0.955773,-0.947402,-0.948986,-0.958117,-0.960856,-0.960627,-0.956980,-0.956560,-0.958203,-0.941103,-0.935464,-0.940337,-0.958257,-1.000000,-0.948244,-0.959269,-0.954374,-0.949963,-0.953658,-0.960982,-0.962958,-0.962033,-0.960006,-0.958600,-0.958921,-0.934608,-0.933696,-0.933847,-0.956270
-1.000000,-0.949618,-0.951983,-0.949675,-0.946354,-0.948830,-0.958335,-0.961346,-0.961151,-0.958365,-0.957144,-0.958703,-0.942997,-0.934684,-0.944979,-0.958676,-1.000000,-0.948747,-0.956248,-0.951456,-0.946934,-0.953613,-0.961221,-0.963404,-0.962063,-0.960082,-0.957234,-0.958241,-0.937630,-0.933535,-0.931895,-0.956003
-1.000000,-0.948895,-0.954971,-0.954301,-0.946590,-0.949057,-0.958114,-0.961098,-0.960418,-0.956439,-0.956582,-0.958366,-0.941990,-0.938490,-0.946255,-0.959611,-1.000000,-0.948218,-0.958280,-0.952827,-0.947827,-0.952587,-0.960739,-0.963132,-0.961551,-0.957711,-0.957627,-0.958433,-0.938423,-0.935059,-0.935661,-0.956838
-1.000000,-0.952495,-0.956674,-0.957056,-0.948128,-0.947391,-0.958666,-0.961996,-0.961971,-0.959563,-0.958386,-0.960836,-0.944926,-0.939995,-0.946333,-0.960003,-1.000000,-0.947814,-0.958565,-0.952806,-0.949005,-0.954119,-0.961063,-0.964296,-0.963080,-0.960247,-0.959485,-0.960387,-0.938439,-0.932833,-0.933815,-0.956226
-1.000000,-0.945522,-0.951102,-0.953488,-0.945724,-0.947222,-0.956233,-0.959690,-0.959259,-0.955898,-0.954460,-0.957599,-0.942227,-0.936739,-0.945157,-0.956668,-1.000000,-0.942052,-0.956967,-0.951194,-0.948484,-0.953571,-0.959794,-0.961821,-0.960520,-0.958149,-0.955986,-0.957678,-0.936353,-0.929172,-0.931995,-0.952544
-1.000000,-0.949700,-0.952956,-0.952588,-0.946474,-0.949984,-0.957104,-0.959321,-0.959023,-0.956231,-0.954707,-0.958322,-0.943216,-0.938065,-0.945251,-0.955989,-1.000000,-0.945046,-0.955160,-0.951782,-0.947956,-0.953364,-0.960018,-0.961363,-0.960116,-0.958137,-0.956252,-0.957684,-0.936396,-0.931486,-0.931981,-0.952329
-1.000000,-0.953523,-0.955424,-0.955305,-0.947894,-0.950693,-0.958588,-0.961090,-0.960440,-0.957513,-0.954324,-0.959755,-0.946200,-0.939074,-0.947614,-0.962768,-1.000000,-0.950431,-0.957509,-0.953290,-0.950099,-0.955212,-0.961835,-0.963175,-0.961778,-0.958944,-0.957862,-0.959348,-0.938090,-0.931281,-0.933997,-0.957475
-1.000000,-0.953289,-0.955231,-0.954085,-0.948149,-0.949624,-0.956742,-0.959870,-0.959742,-0.956815,-0.954990,-0.957130,-0.942481,-0.938451,-0.946531,-0.962591,-1.000000,-0.949368,-0.956653,-0.952765,-0.950260,-0.953959,-0.960126,-0.962185,-0.961131,-0.958997,-0.956378,-0.957097,-0.937224,-0.922351,-0.926993,-0.956401
-1.000000,-0.953721,-0.954905,-0.953649,-0.945474,-0.949503,-0.955659,-0.959003,-0.958696,-0.956403,-0.955665,-0.958992,-0.945826,-0.940529,-0.948073,-0.962000,-1.000000,-0.947748,-0.955888,-0.951296,-0.947487,-0.951863,-0.958670,-0.960926,-0.959915,-0.959249,-0.957926,-0.958751,-0.936922,-0.930702,-0.935084,-0.957603
-1.000000,-0.953285,-0.953273,-0.951981,-0.947121,-0.948718,-0.957106,-0.960569,-0.960225,-0.956847,-0.957368,-0.960326,-0.942025,-0.937751,-0.941545,-0.958996,-1.000000,-0.947704,-0.955529,-0.952726,-0.950479,-0.952184,-0.960049,-0.962254,-0.961459,-0.960527,-0.958984,-0.959201,-0.934500,-0.925663,-0.929375,-0.953151
-1.000000,-0.953747,-0.953483,-0.953927,-0.946215,-0.947178,-0.955695,-0.960260,-0.960372,-0.957592,-0.957425,-0.960840,-0.942589,-0.937644,-0.946634,-0.956966,-1.000000,-0.944395,-0.955304,-0.952308,-0.946667,-0.946504,-0.958052,-0.962073,-0.961785,-0.960177,-0.958627,-0.959540,-0.935881,-0.930554,-0.931883,-0.952109
-1.000000,-0.947488,-0.950362,-0.948946,-0.943108,-0.946155,-0.954294,-0.958690,-0.958122,-0.954634,-0.955676,-0.957901,-0.942884,-0.935057,-0.946153,-0.955784,-1.000000,-0.941907,-0.953358,-0.949100,-0.939149,-0.946979,-0.958329,-0.961020,-0.959884,-0.957147,-0.956928,-0.957151,-0.937702,-0.929226,-0.933478,-0.952724
-1.000000,-0.951533,-0.952419,-0.951456,-0.943834,-0.943968,-0.951809,-0.957416,-0.957712,-0.955687,-0.955125,-0.955860,-0.943453,-0.935851,-0.946541,-0.957732,-1.000000,-0.943654,-0.954323,-0.950370,-0.943593,-0.941272,-0.955106,-0.959687,-0.959409,-0.958663,-0.957498,-0.956446,-0.936885,-0.931635,-0.932597,-0.953349
-1.000000,-0.953827,-0.951349,-0.951328,-0.943979,-0.943836,-0.954502,-0.959337,-0.959743,-0.957352,-0.956490,-0.959703,-0.946731,-0.938619,-0.945662,-0.957602,-1.000000,-0.942262,-0.955090,-0.951094,-0.944090,-0.946274,-0.956958,-0.960974,-0.960852,-0.959230,-0.958330,-0.958277,-0.937059,-0.932938,-0.937627,-0.955416
-1.000000,-0.951220,-0.950175,-0.948839,-0.941764,-0.942435,-0.950471,-0.956513,-0.957242,-0.956505,-0.953453,-0.959179,-0.946617,-0.939812,-0.947330,-0.957821,-1.000000,-0.938500,-0.950131,-0.945900,-0.939322,-0.942276,-0.952264,-0.957903,-0.958452,-0.955092,-0.956252,-0.958004,-0.938624,-0.931954,-0.935807,-0.952380
-1.000000,-0.943739,-0.949905,-0.949685,-0.940495,-0.942968,-0.951790,-0.956596,-0.957902,-0.954716,-0.954971,-0.957298,-0.944050,-0.934735,-0.941329,-0.954531,-1.000000,-0.939814,-0.948921,-0.945927,-0.937648,-0.941652,-0.955007,-0.958860,-0.959556,-0.957873,-0.955837,-0.956472,-0.932996,-0.924598,-0.933987,-0.952808
-1.000000,-0.952899,-0.953120,-0.953263,-0.945954,-0.947720,-0.956558,-0.961037,-0.961332,-0.957614,-0.957521,-0.962053,-0.945479,-0.940417,-0.945783,-0.958414,-1.000000,-0.942705,-0.953951,-0.951814,-0.946379,-0.947756,-0.958660,-0.962533,-0.962514,-0.961280,-0.959208,-0.961765,-0.944075,-0.937342,-0.938082,-0.955662
-1.000000,-0.948835,-0.945355,-0.944252,-0.942599,-0.946511,-0.952570,-0.957598,-0.958330,-0.954771,-0.952748,-0.958386,-0.944640,-0.937199,-0.943736,-0.958862,-1.000000,-0.940149,-0.946838,-0.948456,-0.945849,-0.947345,-0.955756,-0.959532,-0.959649,-0.957559,-0.954908,-0.958035,-0.945216,-0.935062,-0.937304,-0.955368
-1.000000,-0.946518,-0.947580,-0.950342,-0.945172,-0.945288,-0.952793,-0.958241,-0.960942,-0.958817,-0.958183,-0.962154,-0.946380,-0.939423,-0.944509,-0.958699,-1.000000,-0.937980,-0.948009,-0.949744,-0.943457,-0.944892,-0.955946,-0.961351,-0.962393,-0.962433,-0.960916,-0.961818,-0.945469,-0.934613,-0.934389,-0.952847
-1.000000,-0.950587,-0.948155,-0.953605,-0.947426,-0.947014,-0.954915,-0.962265,-0.963830,-0.960300,-0.960151,-0.963116,-0.934707,-0.941196,-0.949132,-0.960226,-1.000000,-0.940980,-0.950845,-0.952593,-0.945670,-0.944154,-0.956066,-0.963872,-0.964547,-0.963571,-0.963064,-0.963777,-0.947530,-0.927885,-0.942391,-0.953919
-1.000000,-0.948934,-0.951565,-0.954476,-0.948286,-0.948012,-0.957663,-0.963939,-0.964993,-0.961963,-0.961308,-0.966858,-0.948173,-0.941741,-0.951600,-0.960865,-1.000000,-0.942712,-0.953357,-0.953929,-0.945795,-0.948339,-0.960656,-0.965565,-0.966066,-0.966308,-0.964359,-0.967106,-0.938456,-0.934977,-0.951057,-0.961673
-1.000000,-0.964329,-0.966056,-0.967207,-0.958394,-0.949891,-0.951011,-0.954019,-0.981800,-0.947990,-0.959787,-0.957385,-0.978243,-0.979732,-0.976820,-0.965945,-1.000000,-0.947460,-0.964722,-0.957742,-0.950597,-0.943540,-0.951036,-0.952161,-0.939245,-0.965694,-0.957945,-0.958334,-0.979230,-0.981136,-0.978020,-0.970305
-1.000000,-0.964606,-0.966445,-0.969594,-0.961014,-0.952740,-0.950661,-0.954160,-0.982952,-0.943901,-0.959209,-0.956720,-0.977079,-0.978904,-0.976517,-0.965292,-1.000000,-0.947767,-0.965047,-0.957209,-0.953555,-0.950473,-0.950987,-0.951447,-0.937954,-0.964747,-0.958264,-0.955002,-0.977522,-0.980248,-0.977526,-0.969899
-1.000000,-0.965015,-0.963512,-0.968672,-0.959293,-0.950491,-0.950828,-0.949198,-0.982900,-0.945860,-0.956335,-0.955420,-0.976205,-0.978159,-0.975915,-0.965109,-1.000000,-0.948543,-0.965588,-0.962487,-0.953704,-0.945952,-0.948681,-0.943170,-0.935854,-0.963014,-0.956740,-0.947411,-0.975809,-0.979226,-0.976900,-0.969754
-1.000000,-0.964538,-0.965808,-0.967031,-0.959089,-0.943766,-0.944092,-0.953742,-0.983836,-0.946543,-0.957751,-0.956375,-0.976804,-0.978490,-0.975468,-0.963821,-1.000000,-0.940685,-0.965395,-0.960429,-0.951954,-0.940214,-0.947748,-0.952662,-0.937111,-0.963329,-0.957171,-0.954812,-0.977195,-0.979588,-0.976261,-0.967112
-1.000000,-0.964409,-0.968182,-0.969658,-0.957991,-0.948639,-0.952043,-0.953446,-0.983876,-0.944362,-0.957672,-0.956226,-0.976668,-0.978630,-0.976566,-0.966893,-1.000000,-0.951174,-0.967923,-0.964733,-0.956102,-0.946632,-0.951965,-0.951707,-0.933951,-0.963453,-0.958018,-0.956687,-0.977314,-0.980001,-0.977574,-0.970706
-1.000000,-0.964256,-0.966244,-0.969755,-0.960439,-0.948230,-0.950388,-0.952823,-0.983697,-0.944456,-0.956167,-0.955916,-0.975975,-0.977747,-0.975817,-0.966718,-1.000000,-0.951976,-0.966106,-0.963054,-0.953182,-0.946531,-0.950141,-0.949785,-0.931562,-0.962365,-0.957641,-0.956087,-0.976455,-0.978922,-0.976653,-0.970138
-1.000000,-0.965948,-0.970188,-0.970399,-0.959468,-0.953044,-0.953561,-0.955343,-0.982845,-0.943282,-0.957721,-0.952533,-0.976527,-0.979111,-0.977333,-0.967720,-1.000000,-0.954135,-0.969592,-0.964607,-0.956012,-0.950078,-0.953394,-0.952998,-0.935058,-0.963637,-0.958570,-0.956846,-0.977530,-0.980495,-0.978487,-0.972449
-1.000000,-0.965559,-0.967863,-0.971833,-0.958885,-0.950205,-0.947472,-0.954583,-0.983184,-0.944966,-0.957042,-0.951927,-0.974900,-0.978144,-0.976465,-0.967039,-1.000000,-0.950501,-0.967415,-0.964397,-0.953180,-0.947851,-0.950087,-0.952233,-0.935018,-0.962044,-0.953660,-0.952325,-0.974946,-0.979049,-0.977193,-0.970476
-1.000000,-0.964921,-0.969558,-0.971798,-0.960793,-0.951215,-0.952105,-0.954880,-0.979210,-0.945510,-0.957204,-0.948344,-0.974630,-0.977903,-0.975769,-0.966062,-1.000000,-0.951462,-0.969325,-0.964710,-0.955611,-0.950148,-0.952824,-0.953291,-0.936713,-0.963272,-0.956839,-0.954422,-0.976306,-0.979192,-0.977058,-0.970140
-1.000000,-0.964801,-0.969181,-0.972426,-0.955539,-0.950746,-0.952939,-0.956114,-0.981699,-0.947266,-0.957323,-0.953071,-0.976957,-0.979212,-0.977062,-0.967087,-1.000000,-0.952160,-0.970578,-0.965830,-0.954792,-0.949724,-0.953160,-0.954052,-0.938009,-0.964341,-0.956382,-0.952627,-0.977236,-0.980564,-0.978443,-0.971853
-1.000000,-0.964861,-0.968331,-0.971301,-0.958598,-0.948290,-0.946903,-0.954227,-0.982166,-0.945879,-0.956454,-0.952714,-0.977183,-0.979610,-0.977798,-0.968240,-1.000000,-0.950338,-0.968939,-0.965499,-0.954002,-0.948990,-0.944467,-0.949880,-0.934661,-0.963026,-0.958155,-0.953740,-0.977554,-0.980960,-0.978930,-0.972090
-1.000000,-0.965460,-0.970796,-0.970673,-0.960101,-0.952668,-0.950568,-0.953965,-0.981813,-0.946412,-0.955099,-0.950396,-0.976456,-0.979030,-0.977092,-0.967164,-1.000000,-0.949922,-0.970553,-0.966976,-0.952730,-0.950410,-0.951035,-0.951535,-0.935754,-0.962094,-0.955572,-0.944817,-0.975240,-0.980024,-0.978165,-0.971309
-1.000000,-0.964341,-0.968495,-0.968973,-0.956182,-0.946325,-0.947254,-0.950361,-0.981431,-0.944445,-0.955335,-0.953779,-0.976612,-0.978681,-0.976961,-0.968057,-1.000000,-0.956606,-0.969583,-0.964602,-0.951950,-0.945509,-0.947056,-0.950866,-0.935125,-0.961498,-0.956088,-0.954402,-0.977231,-0.979976,-0.978241,-0.972283
-1.000000,-0.966280,-0.967365,-0.970901,-0.959951,-0.949708,-0.947104,-0.950694,-0.983165,-0.939760,-0.954480,-0.953367,-0.976141,-0.978794,-0.977373,-0.968599,-1.000000,-0.944922,-0.969052,-0.966299,-0.958344,-0.951347,-0.952893,-0.951770,-0.934680,-0.960325,-0.955869,-0.954910,-0.977116,-0.979944,-0.978471,-0.971805
-1.000000,-0.968098,-0.970949,-0.970810,-0.952930,-0.952648,-0.953047,-0.953209,-0.983559,-0.949495,-0.958318,-0.952404,-0.977168,-0.979912,-0.978841,-0.971125,-1.000000,-0.953162,-0.970508,-0.966840,-0.958577,-0.952834,-0.956298,-0.957552,-0.942390,-0.965788,-0.959080,-0.955374,-0.977753,-0.980854,-0.979688,-0.973727
-1.000000,-0.968977,-0.971037,-0.970961,-0.959104,-0.952601,-0.952739,-0.955682,-0.983550,-0.949774,-0.958225,-0.950487,-0.976604,-0.980254,-0.979507,-0.971763,-1.000000,-0.955643,-0.971339,-0.966668,-0.958039,-0.952690,-0.955841,-0.958275,-0.943021,-0.964486,-0.958116,-0.954325,-0.977179,-0.981173,-0.980377,-0.975115
-1.000000,-0.967324,-0.970449,-0.970250,-0.958180,-0.952312,-0.952623,-0.954423,-0.983574,-0.936930,-0.950420,-0.947975,-0.973861,-0.978211,-0.977767,-0.970177,-1.000000,-0.954699,-0.970552,-0.965829,-0.951426,-0.951695,-0.954818,-0.956658,-0.940074,-0.957800,-0.955091,-0.951135,-0.975000,-0.979314,-0.978695,-0.973715
-1.000000,-0.970059,-0.972532,-0.972218,-0.960774,-0.954666,-0.955644,-0.956430,-0.984122,-0.948899,-0.959697,-0.955694,-0.979226,-0.982283,-0.980914,-0.972498,-1.000000,-0.955589,-0.972373,-0.967501,-0.960286,-0.955503,-0.958384,-0.959600,-0.943645,-0.968078,-0.961714,-0.956049,-0.979086,-0.982964,-0.981759,-0.976098
-1.000000,-0.969872,-0.971994,-0.972245,-0.961052,-0.954086,-0.954744,-0.957677,-0.984444,-0.951149,-0.962160,-0.953147,-0.978713,-0.982119,-0.980810,-0.972065,-1.000000,-0.956588,-0.972317,-0.967416,-0.959803,-0.955339,-0.958101,-0.960399,-0.944178,-0.968413,-0.961819,-0.956405,-0.978792,-0.982777,-0.981752,-0.975856
-1.000000,-0.969489,-0.972033,-0.971870,-0.961509,-0.954239,-0.954435,-0.956116,-0.983745,-0.950272,-0.961582,-0.954992,-0.979032,-0.982077,-0.980793,-0.972205,-1.000000,-0.955670,-0.971372,-0.966507,-0.958778,-0.955048,-0.957174,-0.959376,-0.942810,-0.968138,-0.962024,-0.956148,-0.978822,-0.982694,-0.981646,-0.975828
-1.000000,-0.968953,-0.971607,-0.971669,-0.960138,-0.953279,-0.954884,-0.957792,-0.983638,-0.951551,-0.961680,-0.956961,-0.978551,-0.981817,-0.980343,-0.970318,-1.000000,-0.955919,-0.972139,-0.967838,-0.960126,-0.953604,-0.957782,-0.960105,-0.945519,-0.967902,-0.961438,-0.956309,-0.978696,-0.982506,-0.981255,-0.974409
-1.000000,-0.970470,-0.971834,-0.971494,-0.960637,-0.954822,-0.953281,-0.956528,-0.981723,-0.951227,-0.961425,-0.957277,-0.979029,-0.981976,-0.980686,-0.972592,-1.000000,-0.954973,-0.972016,-0.967554,-0.960294,-0.955612,-0.957833,-0.960130,-0.945362,-0.966844,-0.960941,-0.956554,-0.979035,-0.982640,-0.981558,-0.975781
-1.000000,-0.971182,-0.971530,-0.972949,-0.962945,-0.955197,-0.954948,-0.957553,-0.982967,-0.951223,-0.959931,-0.955912,-0.978513,-0.981828,-0.980589,-0.972586,-1.000000,-0.955790,-0.972012,-0.967810,-0.960740,-0.955743,-0.957797,-0.960129,-0.946185,-0.967144,-0.960592,-0.956121,-0.978736,-0.982477,-0.981420,-0.975913
-1.000000,-0.971066,-0.972302,-0.972728,-0.962763,-0.954960,-0.954742,-0.957101,-0.983042,-0.951931,-0.959708,-0.954196,-0.978530,-0.981555,-0.980150,-0.972468,-1.000000,-0.956115,-0.972065,-0.967931,-0.960368,-0.955498,-0.958043,-0.960658,-0.947312,-0.966766,-0.960995,-0.956251,-0.978423,-0.982245,-0.981177,-0.975778
-1.000000,-0.970383,-0.970953,-0.972779,-0.963126,-0.955769,-0.955742,-0.959257,-0.983137,-0.953498,-0.958202,-0.954477,-0.978403,-0.981638,-0.980690,-0.972940,-1.000000,-0.956070,-0.971484,-0.967202,-0.960428,-0.956425,-0.959225,-0.960748,-0.947099,-0.966278,-0.960172,-0.954760,-0.978443,-0.982137,-0.981438,-0.975930
-1.000000,-0.969782,-0.972663,-0.973032,-0.962607,-0.954894,-0.953642,-0.959067,-0.983917,-0.954722,-0.962158,-0.956012,-0.979160,-0.982338,-0.980895,-0.972546,-1.000000,-0.956038,-0.972432,-0.968992,-0.960099,-0.955529,-0.951883,-0.958899,-0.946569,-0.966439,-0.960956,-0.955545,-0.978837,-0.982927,-0.981690,-0.975870
