0,1,2,3,4,5,6,7,8,9,10,11,12,13,14,15,16,17,18,19,20,21,22,23,24,25,26,27,28,29,30,31
-0.550327,-0.661185,-0.652176,-0.691298,-0.698390,-0.706098,-0.708619,-0.709640,-0.704083,-0.708315,-0.704939,-0.694053,-0.659688,-0.624894,-0.469425,-0.265184,-0.528349,-0.663878,-0.686550,-0.704513,-0.711615,-0.714012,-0.721885,-0.709570,-0.725487,-0.718867,-0.704797,-0.698086,-0.671166,-0.636168,-0.468917,-0.145382
-0.543635,-0.658448,-0.659652,-0.696687,-0.701392,-0.708261,-0.713891,-0.713858,-0.705647,-0.711702,-0.709380,-0.696267,-0.664023,-0.627774,-0.476784,-0.271892,-0.538207,-0.666311,-0.692108,-0.705460,-0.714827,-0.715500,-0.723253,-0.719859,-0.732000,-0.722343,-0.709616,-0.703799,-0.674166,-0.638378,-0.475662,-0.149237
-0.569012,-0.670149,-0.662267,-0.702858,-0.707271,-0.714433,-0.717711,-0.719024,-0.707992,-0.714917,-0.713291,-0.702961,-0.669273,-0.634886,-0.481935,-0.269897,-0.544690,-0.669539,-0.695948,-0.709190,-0.717419,-0.720877,-0.728258,-0.721506,-0.733139,-0.726829,-0.713322,-0.707146,-0.679364,-0.644284,-0.476673,-0.155606
-0.530075,-0.629212,-0.611836,-0.669243,-0.665716,-0.677166,-0.686611,-0.685332,-0.666831,-0.675956,-0.679332,-0.668245,-0.632662,-0.601376,-0.450155,-0.226501,-0.501661,-0.633567,-0.659512,-0.670940,-0.683244,-0.687058,-0.697925,-0.687950,-0.700503,-0.694529,-0.676222,-0.673011,-0.651258,-0.616175,-0.457822,-0.136382
-0.546627,-0.643279,-0.637041,-0.669019,-0.682159,-0.687369,-0.693555,-0.692760,-0.683359,-0.684361,-0.687698,-0.677091,-0.645693,-0.616439,-0.460698,-0.238203,-0.509752,-0.635152,-0.668063,-0.685514,-0.689092,-0.692910,-0.703354,-0.692137,-0.717326,-0.699742,-0.688377,-0.684429,-0.662581,-0.631001,-0.459757,-0.115169
-0.586215,-0.666372,-0.669027,-0.692077,-0.703537,-0.707333,-0.709891,-0.711465,-0.699907,-0.707840,-0.704286,-0.695227,-0.658224,-0.626810,-0.457585,-0.223325,-0.550045,-0.671597,-0.696322,-0.705687,-0.709322,-0.714346,-0.715961,-0.716077,-0.727905,-0.713283,-0.705216,-0.698443,-0.672943,-0.640798,-0.455715,-0.101924
-0.571139,-0.657411,-0.662409,-0.685093,-0.692794,-0.701457,-0.705772,-0.706403,-0.696665,-0.702932,-0.698960,-0.690610,-0.654908,-0.621912,-0.461859,-0.237966,-0.527226,-0.658405,-0.686606,-0.696251,-0.700041,-0.707498,-0.713173,-0.708666,-0.724766,-0.711304,-0.701270,-0.692616,-0.665416,-0.631433,-0.452571,-0.110500
-0.599752,-0.683150,-0.683391,-0.703461,-0.714370,-0.718357,-0.725780,-0.723398,-0.708267,-0.716857,-0.715067,-0.708295,-0.671240,-0.641705,-0.491988,-0.281051,-0.564232,-0.682659,-0.707160,-0.717800,-0.722118,-0.727117,-0.728711,-0.725607,-0.739476,-0.725012,-0.714654,-0.709229,-0.685086,-0.654545,-0.489702,-0.142583
-0.599834,-0.678738,-0.677538,-0.696288,-0.700822,-0.697472,-0.709583,-0.707256,-0.698936,-0.704176,-0.699758,-0.694883,-0.658090,-0.628723,-0.484797,-0.280836,-0.555977,-0.674472,-0.697291,-0.702712,-0.712617,-0.712396,-0.721370,-0.718140,-0.727680,-0.718643,-0.708963,-0.686620,-0.677457,-0.647196,-0.484940,-0.151841
-0.510822,-0.606621,-0.609014,-0.635591,-0.654483,-0.641330,-0.667691,-0.655319,-0.631147,-0.643591,-0.647807,-0.642530,-0.593519,-0.549025,-0.373403,-0.149236,-0.445493,-0.602595,-0.642161,-0.647954,-0.656473,-0.664411,-0.666242,-0.666906,-0.675584,-0.665022,-0.635599,-0.645857,-0.605427,-0.561414,-0.372466,-0.005083
-0.509466,-0.602947,-0.603713,-0.624866,-0.641000,-0.641530,-0.654717,-0.651354,-0.644166,-0.646791,-0.647428,-0.640072,-0.604844,-0.569400,-0.422259,-0.211775,-0.468542,-0.596594,-0.624843,-0.636366,-0.646744,-0.652200,-0.660684,-0.655616,-0.670988,-0.659232,-0.649803,-0.648321,-0.628025,-0.594664,-0.430526,-0.076286
-0.566962,-0.663744,-0.662186,-0.689782,-0.697881,-0.693605,-0.708630,-0.703804,-0.699678,-0.696243,-0.698289,-0.690342,-0.652190,-0.616681,-0.436289,-0.178407,-0.520163,-0.661088,-0.682847,-0.699352,-0.701870,-0.711802,-0.707952,-0.713419,-0.724575,-0.707057,-0.685397,-0.694798,-0.663672,-0.624584,-0.441840,-0.068344
-0.546338,-0.656114,-0.665224,-0.691062,-0.701634,-0.702021,-0.722264,-0.714958,-0.716124,-0.713382,-0.710427,-0.699584,-0.652211,-0.614732,-0.410801,-0.147661,-0.495447,-0.657180,-0.682722,-0.699231,-0.703113,-0.715242,-0.718441,-0.718441,-0.727642,-0.724332,-0.702413,-0.698213,-0.669226,-0.619626,-0.414031,0.049533
-0.324152,-0.487135,-0.497414,-0.548721,-0.556951,-0.576855,-0.580953,-0.571258,-0.587987,-0.582851,-0.578688,-0.564961,-0.508695,-0.447031,-0.230996,0.000193,-0.247436,-0.474846,-0.533072,-0.537605,-0.573272,-0.578256,-0.592234,-0.597030,-0.618802,-0.604594,-0.588647,-0.583896,-0.526680,-0.478202,-0.239564,0.212055
-0.448634,-0.584745,-0.608652,-0.637059,-0.644848,-0.648278,-0.676240,-0.663979,-0.660242,-0.656243,-0.657868,-0.654186,-0.603457,-0.571805,-0.395128,-0.153416,-0.385340,-0.585004,-0.627424,-0.645671,-0.647823,-0.664762,-0.673426,-0.675947,-0.696875,-0.680000,-0.656296,-0.659577,-0.627224,-0.589048,-0.413769,-0.038697
-0.460988,-0.571265,-0.583942,-0.611328,-0.614171,-0.620879,-0.637386,-0.620574,-0.613671,-0.620068,-0.624710,-0.614344,-0.581620,-0.545559,-0.386430,-0.177472,-0.402752,-0.560013,-0.603489,-0.620926,-0.624606,-0.628805,-0.638360,-0.640393,-0.659418,-0.629340,-0.616771,-0.626076,-0.591125,-0.561350,-0.396859,-0.079398
-0.473683,-0.587487,-0.596557,-0.627356,-0.634889,-0.644004,-0.654119,-0.647331,-0.651483,-0.649759,-0.646671,-0.635626,-0.597557,-0.555391,-0.361732,-0.080021,-0.417361,-0.576683,-0.621301,-0.635986,-0.640130,-0.650343,-0.658690,-0.661005,-0.680151,-0.664537,-0.640283,-0.645661,-0.609480,-0.574564,-0.398038,-0.071908
-0.214134,-0.388931,-0.422621,-0.453750,-0.475139,-0.473652,-0.502149,-0.497663,-0.517420,-0.500078,-0.470714,-0.481033,-0.421427,-0.355310,-0.092877,0.255523,-0.183173,-0.373246,-0.431103,-0.464250,-0.483685,-0.502167,-0.509778,-0.504650,-0.524863,-0.514905,-0.491683,-0.482454,-0.440868,-0.388481,-0.164560,0.222574
-0.339032,-0.485043,-0.506315,-0.535257,-0.550614,-0.553522,-0.575546,-0.561394,-0.574305,-0.565412,-0.565158,-0.546146,-0.493201,-0.441144,-0.180035,0.161573,-0.298317,-0.480803,-0.529119,-0.554747,-0.567490,-0.576365,-0.585491,-0.584875,-0.603134,-0.589300,-0.560908,-0.563145,-0.523269,-0.473903,-0.253968,0.161358
-0.380524,-0.509632,-0.524631,-0.557394,-0.571128,-0.574788,-0.591383,-0.583779,-0.593963,-0.589382,-0.576391,-0.573312,-0.527503,-0.487444,-0.282058,-0.011659,-0.322387,-0.498774,-0.548089,-0.563451,-0.579935,-0.589075,-0.601566,-0.598034,-0.616781,-0.601882,-0.578787,-0.578370,-0.544986,-0.503079,-0.315417,0.026283
-0.364388,-0.502514,-0.521994,-0.554438,-0.563909,-0.569213,-0.586995,-0.581982,-0.585036,-0.583094,-0.574188,-0.568772,-0.524020,-0.480716,-0.273538,-0.007049,-0.305391,-0.486533,-0.536793,-0.559653,-0.574378,-0.583771,-0.597468,-0.594943,-0.611012,-0.599870,-0.577295,-0.575893,-0.541291,-0.497382,-0.307243,0.046197
-0.369826,-0.505086,-0.523902,-0.555154,-0.566191,-0.570696,-0.586419,-0.582050,-0.594859,-0.584308,-0.573565,-0.568646,-0.526357,-0.483521,-0.288530,-0.035183,-0.320383,-0.491833,-0.542084,-0.563789,-0.578474,-0.585120,-0.596872,-0.595366,-0.613395,-0.600372,-0.577809,-0.575708,-0.542615,-0.500083,-0.316157,0.024736
-0.370258,-0.504848,-0.529243,-0.554624,-0.568483,-0.573465,-0.586701,-0.581612,-0.587258,-0.585023,-0.578952,-0.566104,-0.518374,-0.472170,-0.255831,0.008537,-0.298255,-0.487340,-0.539893,-0.565270,-0.575557,-0.584700,-0.601293,-0.599623,-0.611488,-0.597359,-0.582747,-0.574440,-0.537589,-0.487099,-0.281481,0.092126
-0.359382,-0.469124,-0.484577,-0.512950,-0.525998,-0.531551,-0.555191,-0.537097,-0.545097,-0.547453,-0.541759,-0.531166,-0.493479,-0.449267,-0.256063,0.001725,-0.264942,-0.446368,-0.499382,-0.520985,-0.534172,-0.542991,-0.559202,-0.557607,-0.579335,-0.569105,-0.541913,-0.545903,-0.506223,-0.462540,-0.266960,0.077996
-0.368878,-0.492842,-0.513001,-0.540054,-0.551372,-0.554810,-0.574633,-0.568249,-0.572620,-0.572551,-0.568640,-0.559159,-0.519818,-0.478493,-0.287957,-0.034998,-0.291824,-0.467800,-0.521086,-0.548609,-0.558463,-0.567962,-0.583318,-0.579390,-0.599543,-0.584820,-0.568621,-0.565792,-0.528323,-0.489047,-0.298778,0.053313
-0.372848,-0.490971,-0.507943,-0.529810,-0.552458,-0.549276,-0.565627,-0.560563,-0.577124,-0.571760,-0.565632,-0.555787,-0.521898,-0.482437,-0.293357,-0.033543,-0.312682,-0.475265,-0.521559,-0.544827,-0.552079,-0.563265,-0.578777,-0.577676,-0.593793,-0.581136,-0.566367,-0.563403,-0.530021,-0.493895,-0.318186,0.007465
-0.399744,-0.518882,-0.538497,-0.565286,-0.575733,-0.575453,-0.594923,-0.588710,-0.598458,-0.593390,-0.587009,-0.579768,-0.539432,-0.500118,-0.296194,-0.037971,-0.331528,-0.499790,-0.548853,-0.573333,-0.579390,-0.590942,-0.604849,-0.603743,-0.618765,-0.606274,-0.591026,-0.587586,-0.547855,-0.508466,-0.322169,0.021570
-0.400161,-0.519007,-0.543530,-0.566489,-0.577879,-0.578064,-0.595193,-0.587691,-0.599653,-0.594899,-0.588000,-0.582136,-0.542570,-0.504748,-0.310032,-0.051311,-0.331822,-0.499828,-0.550402,-0.574225,-0.580246,-0.590946,-0.607473,-0.604740,-0.617461,-0.606271,-0.590788,-0.589667,-0.553033,-0.513532,-0.336016,-0.011112
-0.396424,-0.513915,-0.537688,-0.563634,-0.574269,-0.572525,-0.591749,-0.582301,-0.597147,-0.591948,-0.584345,-0.578250,-0.539259,-0.498734,-0.304126,-0.044684,-0.327470,-0.495762,-0.545773,-0.570468,-0.577618,-0.588432,-0.602290,-0.601729,-0.613376,-0.603814,-0.588152,-0.582502,-0.547324,-0.509258,-0.332109,-0.005900
-0.395162,-0.512312,-0.534583,-0.562369,-0.572291,-0.571837,-0.588581,-0.582051,-0.595632,-0.590697,-0.583945,-0.576374,-0.538762,-0.499986,-0.304380,-0.045722,-0.326549,-0.493860,-0.543881,-0.564340,-0.577155,-0.585925,-0.600470,-0.600410,-0.612898,-0.604328,-0.585919,-0.585049,-0.547974,-0.508125,-0.332599,-0.004622
-0.392204,-0.512273,-0.534997,-0.559379,-0.571389,-0.559674,-0.584755,-0.574622,-0.582911,-0.581614,-0.576267,-0.568127,-0.532324,-0.493612,-0.294805,-0.040124,-0.328487,-0.495822,-0.543794,-0.568789,-0.571871,-0.582368,-0.595701,-0.595408,-0.607138,-0.594717,-0.582920,-0.578925,-0.542310,-0.504241,-0.331580,-0.001597
-0.372079,-0.498567,-0.531409,-0.556019,-0.561578,-0.565566,-0.575580,-0.572069,-0.580251,-0.576629,-0.571307,-0.560489,-0.525011,-0.486342,-0.299767,-0.065230,-0.305521,-0.474748,-0.529644,-0.560391,-0.567220,-0.576844,-0.585632,-0.592253,-0.600640,-0.597772,-0.579270,-0.576393,-0.540161,-0.499568,-0.322892,-0.013135
-0.393786,-0.515552,-0.542687,-0.569652,-0.575736,-0.579543,-0.592360,-0.587235,-0.594674,-0.594740,-0.592927,-0.581730,-0.547651,-0.506434,-0.323723,-0.090731,-0.333048,-0.489722,-0.540155,-0.563633,-0.579560,-0.590040,-0.607209,-0.607259,-0.618200,-0.612222,-0.595696,-0.596661,-0.553072,-0.516229,-0.349157,-0.051260
-0.397864,-0.521100,-0.541792,-0.568741,-0.576487,-0.578285,-0.591982,-0.589251,-0.595312,-0.596912,-0.593417,-0.580752,-0.547229,-0.504159,-0.320941,-0.082329,-0.344905,-0.502140,-0.547430,-0.566244,-0.583084,-0.594094,-0.607172,-0.608389,-0.617376,-0.609543,-0.591576,-0.594868,-0.553838,-0.515297,-0.347771,-0.043954
-0.380091,-0.511264,-0.537993,-0.561384,-0.569254,-0.568122,-0.584180,-0.577398,-0.586277,-0.587887,-0.583698,-0.572077,-0.533312,-0.490187,-0.279591,0.011777,-0.325406,-0.491176,-0.539416,-0.564310,-0.574489,-0.584895,-0.596938,-0.600078,-0.608073,-0.604194,-0.583057,-0.586094,-0.544093,-0.502481,-0.306863,0.048920
-0.380265,-0.517256,-0.537699,-0.563679,-0.570838,-0.573524,-0.586407,-0.578531,-0.587636,-0.587789,-0.585660,-0.572971,-0.528264,-0.484087,-0.259836,0.014320,-0.327991,-0.497463,-0.544554,-0.569652,-0.575122,-0.587601,-0.602601,-0.602618,-0.610374,-0.606668,-0.586384,-0.585350,-0.538909,-0.492984,-0.275969,0.152395
-0.343421,-0.470736,-0.497904,-0.525194,-0.523731,-0.523071,-0.537601,-0.531702,-0.553731,-0.549781,-0.546675,-0.532158,-0.489972,-0.451097,-0.246422,0.007628,-0.287912,-0.454881,-0.503368,-0.524326,-0.531529,-0.544073,-0.554440,-0.560002,-0.566580,-0.564539,-0.540676,-0.542325,-0.501047,-0.458683,-0.270023,0.117682
-0.403814,-0.531850,-0.553776,-0.577503,-0.584404,-0.587938,-0.597259,-0.593523,-0.591150,-0.598534,-0.595023,-0.586663,-0.551437,-0.513197,-0.333372,-0.105879,-0.356111,-0.509187,-0.557165,-0.577987,-0.587628,-0.595366,-0.611435,-0.611787,-0.618133,-0.616302,-0.603868,-0.596247,-0.561236,-0.526241,-0.355951,-0.024569
-0.397688,-0.514581,-0.539774,-0.559487,-0.566799,-0.567059,-0.577927,-0.572455,-0.575312,-0.578716,-0.578676,-0.569816,-0.535580,-0.500576,-0.304488,-0.063854,-0.344127,-0.491169,-0.538628,-0.556622,-0.565070,-0.578110,-0.586134,-0.595366,-0.599495,-0.599862,-0.587429,-0.576289,-0.544133,-0.506532,-0.326906,0.024183
-0.404722,-0.522852,-0.547390,-0.568767,-0.579991,-0.581795,-0.590663,-0.586693,-0.590583,-0.595279,-0.587916,-0.578153,-0.543479,-0.508933,-0.319890,-0.081493,-0.354325,-0.505873,-0.553114,-0.571821,-0.585146,-0.591388,-0.605001,-0.605687,-0.613278,-0.611633,-0.594730,-0.586702,-0.553481,-0.518696,-0.346472,-0.011572
-0.342236,-0.493350,-0.529010,-0.554299,-0.564692,-0.566819,-0.579388,-0.576813,-0.576880,-0.582107,-0.573104,-0.564445,-0.526210,-0.483809,-0.269127,0.009525,-0.283898,-0.473019,-0.526132,-0.544831,-0.566049,-0.575199,-0.588732,-0.590973,-0.603361,-0.604487,-0.582997,-0.572555,-0.536164,-0.496124,-0.307393,0.048327
-0.432050,-0.547709,-0.586671,-0.596436,-0.604063,-0.605641,-0.611997,-0.620211,-0.622801,-0.622607,-0.617285,-0.610566,-0.563991,-0.522772,-0.315511,-0.073325,-0.373783,-0.532457,-0.577064,-0.599099,-0.616948,-0.619953,-0.634350,-0.635363,-0.645663,-0.637190,-0.634069,-0.613725,-0.572788,-0.537597,-0.338341,0.099299
-0.503654,-0.614771,-0.645599,-0.651313,-0.659670,-0.655157,-0.664215,-0.663540,-0.664499,-0.670166,-0.666823,-0.657104,-0.621412,-0.581733,-0.363894,-0.066392,-0.450863,-0.596107,-0.634339,-0.654625,-0.666332,-0.666607,-0.676342,-0.676301,-0.679024,-0.680761,-0.673485,-0.659794,-0.627931,-0.590085,-0.391824,-0.003398
-0.420837,-0.571705,-0.612835,-0.618988,-0.639930,-0.637486,-0.649548,-0.642049,-0.650294,-0.650596,-0.649606,-0.629045,-0.569860,-0.507359,-0.210286,0.129775,-0.354729,-0.552931,-0.614926,-0.641411,-0.647110,-0.650632,-0.660929,-0.664045,-0.671210,-0.659824,-0.647786,-0.635340,-0.584927,-0.523344,-0.246812,0.265587
-0.330847,-0.503102,-0.560777,-0.562587,-0.579160,-0.586151,-0.600899,-0.585926,-0.603132,-0.602539,-0.595524,-0.579951,-0.509279,-0.441567,-0.107140,0.317639,-0.284878,-0.481404,-0.537800,-0.572011,-0.581451,-0.596873,-0.608298,-0.610682,-0.613724,-0.612658,-0.607321,-0.584721,-0.519582,-0.459426,-0.171613,0.359991
-0.423289,-0.563956,-0.582805,-0.602519,-0.623970,-0.621856,-0.646186,-0.621667,-0.630647,-0.635490,-0.631497,-0.618402,-0.579688,-0.541012,-0.335260,-0.093667,-0.378941,-0.553005,-0.591064,-0.616609,-0.632114,-0.641642,-0.647666,-0.652494,-0.655046,-0.655357,-0.629604,-0.632740,-0.594705,-0.547225,-0.358617,0.044746
-0.597371,-0.687530,-0.706688,-0.715194,-0.726457,-0.723702,-0.733538,-0.725809,-0.720125,-0.729207,-0.737933,-0.722730,-0.690876,-0.663322,-0.487433,-0.286697,-0.533534,-0.666604,-0.706227,-0.720398,-0.728470,-0.725394,-0.735207,-0.742499,-0.747613,-0.733304,-0.734465,-0.730284,-0.698274,-0.661103,-0.482014,-0.105876
-0.599712,-0.690690,-0.714788,-0.721423,-0.729785,-0.727935,-0.737520,-0.727817,-0.724362,-0.731221,-0.737398,-0.723441,-0.691390,-0.664097,-0.486198,-0.282231,-0.546494,-0.678487,-0.710997,-0.723637,-0.732051,-0.730313,-0.739177,-0.745550,-0.748550,-0.740576,-0.736983,-0.730422,-0.702778,-0.664951,-0.479603,-0.098771
-0.577963,-0.647859,-0.657583,-0.673091,-0.678839,-0.678337,-0.688880,-0.679783,-0.682124,-0.687017,-0.689203,-0.674761,-0.650517,-0.621183,-0.454584,-0.252571,-0.523418,-0.633979,-0.669590,-0.678799,-0.686180,-0.688656,-0.693170,-0.694774,-0.698381,-0.688100,-0.681731,-0.685436,-0.651353,-0.618452,-0.443101,-0.067888
-0.593234,-0.667085,-0.693570,-0.692753,-0.705776,-0.708200,-0.714715,-0.706261,-0.709191,-0.714856,-0.712726,-0.702131,-0.669127,-0.638131,-0.436934,-0.189976,-0.529889,-0.658046,-0.690956,-0.699609,-0.711607,-0.711080,-0.718324,-0.725692,-0.730817,-0.720765,-0.710483,-0.708773,-0.676150,-0.636347,-0.435572,-0.010522
-0.573834,-0.659870,-0.691947,-0.693359,-0.700530,-0.693343,-0.709882,-0.698636,-0.712603,-0.714355,-0.710781,-0.704308,-0.671427,-0.649888,-0.472965,-0.259880,-0.536957,-0.649160,-0.687542,-0.700982,-0.715176,-0.705987,-0.717365,-0.722329,-0.726458,-0.712219,-0.714217,-0.710437,-0.678866,-0.646929,-0.467401,-0.072122
-0.573839,-0.643437,-0.668141,-0.675612,-0.669147,-0.671050,-0.686818,-0.678896,-0.678029,-0.692695,-0.697539,-0.677174,-0.659397,-0.637698,-0.471777,-0.270620,-0.505123,-0.620062,-0.650707,-0.667689,-0.675336,-0.684837,-0.689159,-0.699922,-0.704819,-0.683976,-0.690827,-0.684984,-0.653305,-0.620837,-0.444655,-0.098953
-0.626296,-0.714243,-0.743836,-0.751796,-0.750984,-0.753970,-0.759854,-0.753657,-0.757376,-0.760678,-0.758044,-0.750479,-0.716096,-0.685466,-0.480515,-0.252562,-0.612997,-0.721262,-0.747600,-0.747193,-0.761269,-0.761101,-0.767105,-0.772143,-0.772065,-0.766066,-0.761270,-0.760123,-0.729218,-0.689359,-0.491945,-0.066246
-0.613757,-0.708377,-0.734111,-0.741097,-0.745420,-0.750529,-0.754414,-0.746035,-0.746862,-0.752517,-0.750443,-0.741493,-0.702086,-0.674621,-0.470412,-0.214914,-0.587509,-0.711595,-0.737777,-0.738369,-0.750388,-0.759481,-0.758111,-0.768649,-0.767469,-0.763626,-0.756427,-0.754350,-0.719741,-0.683529,-0.487624,-0.089975
-0.631287,-0.724780,-0.743538,-0.757122,-0.759770,-0.761989,-0.765786,-0.759460,-0.759083,-0.766034,-0.763274,-0.756563,-0.720814,-0.692525,-0.490303,-0.236058,-0.616307,-0.728652,-0.755309,-0.758141,-0.769737,-0.769895,-0.771979,-0.779995,-0.780858,-0.773893,-0.766869,-0.769131,-0.737777,-0.700072,-0.508066,-0.112619
-0.588753,-0.694720,-0.717149,-0.737529,-0.739136,-0.745403,-0.751418,-0.748873,-0.746520,-0.750320,-0.744418,-0.742523,-0.710606,-0.672038,-0.462556,-0.192418,-0.580232,-0.699781,-0.731960,-0.738772,-0.747158,-0.755098,-0.758266,-0.765361,-0.760009,-0.761304,-0.750254,-0.752947,-0.718011,-0.683973,-0.486560,-0.074848
-0.617295,-0.703133,-0.734655,-0.738574,-0.737563,-0.738390,-0.744215,-0.743695,-0.742266,-0.751048,-0.746261,-0.738030,-0.709575,-0.678966,-0.486252,-0.241503,-0.602956,-0.706290,-0.736104,-0.735680,-0.745695,-0.748678,-0.754165,-0.759323,-0.758116,-0.760677,-0.747144,-0.745092,-0.720446,-0.692849,-0.517625,-0.132603
-0.624178,-0.716150,-0.733005,-0.744532,-0.743551,-0.747941,-0.752688,-0.747436,-0.754097,-0.752818,-0.754001,-0.747751,-0.719196,-0.690507,-0.494048,-0.247098,-0.613740,-0.722606,-0.747337,-0.748787,-0.754345,-0.758943,-0.765673,-0.768947,-0.771587,-0.765940,-0.758873,-0.761138,-0.730998,-0.699785,-0.518342,-0.120268
-0.617678,-0.705228,-0.722088,-0.743750,-0.744247,-0.745396,-0.752915,-0.748974,-0.750501,-0.755409,-0.750463,-0.746445,-0.717769,-0.687001,-0.498356,-0.246826,-0.596294,-0.712972,-0.739714,-0.740323,-0.754786,-0.757451,-0.762598,-0.767830,-0.764134,-0.765943,-0.756924,-0.755228,-0.732457,-0.698918,-0.517656,-0.121391
-0.600633,-0.698904,-0.710804,-0.734434,-0.738375,-0.741604,-0.750198,-0.745277,-0.748477,-0.749759,-0.740428,-0.737212,-0.711421,-0.679413,-0.489418,-0.242739,-0.591755,-0.701762,-0.730888,-0.732482,-0.746406,-0.747856,-0.756383,-0.761286,-0.763323,-0.755391,-0.753530,-0.752631,-0.722489,-0.690528,-0.511830,-0.131146
-0.623087,-0.703808,-0.721932,-0.738348,-0.742337,-0.745526,-0.751789,-0.751246,-0.751906,-0.754956,-0.752033,-0.748540,-0.721178,-0.688958,-0.497073,-0.251844,-0.606945,-0.718889,-0.740078,-0.734108,-0.750467,-0.757620,-0.763048,-0.768209,-0.764137,-0.767511,-0.760298,-0.757548,-0.732314,-0.697196,-0.516623,-0.133747
-0.603660,-0.701640,-0.709045,-0.730445,-0.737868,-0.733971,-0.744500,-0.739532,-0.753040,-0.748961,-0.743281,-0.738743,-0.710363,-0.676597,-0.477976,-0.222535,-0.588248,-0.713258,-0.736630,-0.733041,-0.742842,-0.747460,-0.762148,-0.760333,-0.752684,-0.753748,-0.750646,-0.750276,-0.722076,-0.685933,-0.493419,-0.092186
-0.609855,-0.703712,-0.718151,-0.735904,-0.743058,-0.741784,-0.754071,-0.750476,-0.751692,-0.751897,-0.747601,-0.744436,-0.712854,-0.674450,-0.439091,-0.136914,-0.583763,-0.713303,-0.741291,-0.741757,-0.749334,-0.755593,-0.761788,-0.766119,-0.764657,-0.761209,-0.758105,-0.754923,-0.723778,-0.679587,-0.438406,0.064632
-0.589022,-0.678280,-0.706523,-0.716575,-0.724125,-0.729882,-0.740307,-0.736793,-0.739261,-0.737672,-0.742595,-0.729570,-0.696498,-0.669157,-0.483910,-0.250979,-0.563345,-0.694291,-0.724487,-0.725137,-0.734618,-0.742323,-0.748251,-0.757070,-0.759208,-0.753874,-0.746078,-0.738483,-0.712357,-0.670718,-0.492770,-0.129861
-0.589078,-0.696548,-0.713533,-0.728358,-0.737540,-0.734469,-0.748201,-0.744552,-0.747072,-0.749830,-0.739635,-0.739613,-0.708832,-0.679670,-0.503909,-0.255364,-0.580074,-0.702268,-0.736997,-0.734979,-0.742636,-0.751617,-0.754274,-0.761489,-0.759085,-0.754683,-0.750781,-0.745667,-0.727609,-0.691335,-0.527320,-0.177412
-0.537510,-0.644437,-0.662623,-0.683997,-0.692102,-0.683358,-0.710551,-0.695955,-0.709689,-0.710943,-0.698176,-0.693055,-0.657001,-0.632848,-0.449735,-0.223547,-0.526097,-0.658459,-0.690635,-0.696368,-0.698667,-0.708458,-0.721801,-0.723869,-0.728318,-0.719289,-0.715011,-0.704691,-0.680949,-0.644868,-0.472665,-0.108046
-0.554061,-0.640488,-0.650388,-0.679473,-0.688725,-0.688813,-0.701523,-0.696542,-0.694473,-0.698410,-0.697618,-0.690421,-0.665743,-0.637996,-0.471107,-0.226662,-0.525867,-0.648767,-0.676464,-0.687037,-0.687840,-0.699346,-0.709647,-0.708720,-0.722162,-0.715682,-0.707210,-0.707544,-0.683976,-0.648102,-0.487358,-0.126699
-0.584363,-0.676575,-0.692685,-0.709753,-0.722842,-0.719964,-0.738340,-0.728053,-0.725381,-0.730853,-0.726212,-0.719609,-0.688473,-0.657462,-0.477304,-0.230468,-0.552633,-0.682334,-0.714226,-0.721739,-0.726504,-0.732949,-0.745227,-0.742193,-0.750088,-0.742555,-0.737005,-0.732878,-0.705725,-0.666809,-0.486321,-0.112320
-0.557229,-0.654836,-0.679638,-0.690499,-0.706192,-0.703482,-0.719225,-0.713469,-0.715216,-0.716209,-0.711627,-0.698155,-0.671447,-0.638997,-0.457935,-0.210063,-0.533722,-0.661127,-0.695556,-0.698394,-0.711896,-0.716147,-0.730214,-0.727677,-0.737143,-0.728019,-0.720098,-0.717682,-0.687044,-0.644891,-0.472896,-0.107159
-0.576626,-0.671292,-0.688489,-0.702480,-0.711936,-0.706463,-0.721623,-0.716213,-0.720032,-0.719503,-0.712479,-0.709809,-0.682856,-0.650953,-0.476663,-0.232971,-0.566950,-0.683851,-0.698856,-0.715539,-0.709619,-0.719682,-0.734298,-0.732462,-0.739154,-0.736659,-0.730073,-0.718508,-0.699486,-0.664449,-0.492086,-0.123861
-0.510722,-0.646181,-0.665977,-0.682076,-0.704204,-0.695621,-0.712528,-0.699261,-0.711060,-0.709974,-0.695483,-0.688232,-0.641599,-0.593176,-0.352486,-0.025833,-0.478843,-0.649474,-0.684905,-0.697791,-0.701424,-0.707587,-0.723003,-0.717532,-0.720356,-0.721474,-0.702000,-0.698441,-0.655461,-0.601621,-0.352730,0.142732
-0.568187,-0.658321,-0.675545,-0.682670,-0.700816,-0.696307,-0.712574,-0.706327,-0.711281,-0.710041,-0.701714,-0.694262,-0.666057,-0.631906,-0.462821,-0.213344,-0.534942,-0.661376,-0.689399,-0.702982,-0.696167,-0.712277,-0.724650,-0.721913,-0.722759,-0.729496,-0.720545,-0.707708,-0.677463,-0.640762,-0.468216,-0.143220
-0.619281,-0.685108,-0.690293,-0.706367,-0.710890,-0.700526,-0.721734,-0.713646,-0.725854,-0.722796,-0.714491,-0.712398,-0.694149,-0.669405,-0.533353,-0.319157,-0.599303,-0.692310,-0.706736,-0.720854,-0.714246,-0.719205,-0.735975,-0.732604,-0.738955,-0.727930,-0.731020,-0.718716,-0.702705,-0.674138,-0.527062,-0.219779
-0.605634,-0.676055,-0.679091,-0.700218,-0.711548,-0.702905,-0.720256,-0.713890,-0.723001,-0.719292,-0.713572,-0.710218,-0.691069,-0.670057,-0.536593,-0.317302,-0.596419,-0.687769,-0.703890,-0.714249,-0.711859,-0.717698,-0.733087,-0.728899,-0.736408,-0.732888,-0.729972,-0.720902,-0.704020,-0.683738,-0.554435,-0.277076
-0.579128,-0.663084,-0.680461,-0.695663,-0.707886,-0.698727,-0.719558,-0.716450,-0.717384,-0.715974,-0.708939,-0.705093,-0.685748,-0.652950,-0.495231,-0.264317,-0.544760,-0.662482,-0.693433,-0.695843,-0.703030,-0.714582,-0.728767,-0.722598,-0.733667,-0.723817,-0.729761,-0.715353,-0.691883,-0.655986,-0.499523,-0.172604
-0.591988,-0.674800,-0.684279,-0.701113,-0.709745,-0.701430,-0.719616,-0.713802,-0.717340,-0.715904,-0.712589,-0.706088,-0.682875,-0.654638,-0.489516,-0.246300,-0.572698,-0.678705,-0.701098,-0.710299,-0.709719,-0.717903,-0.730931,-0.726335,-0.731815,-0.730932,-0.726347,-0.715818,-0.692095,-0.657232,-0.492380,-0.155309
-0.544628,-0.628151,-0.641171,-0.656844,-0.668345,-0.653860,-0.675295,-0.668009,-0.675910,-0.665720,-0.667285,-0.666075,-0.637856,-0.613074,-0.444569,-0.205114,-0.523753,-0.635888,-0.660702,-0.665370,-0.670608,-0.673295,-0.684311,-0.681394,-0.693921,-0.679836,-0.675731,-0.669477,-0.645990,-0.604102,-0.438067,-0.080333
-0.598319,-0.668679,-0.664856,-0.692236,-0.700069,-0.685898,-0.702596,-0.701062,-0.702082,-0.703109,-0.695326,-0.698917,-0.681044,-0.660275,-0.524671,-0.303356,-0.581694,-0.661940,-0.683859,-0.699021,-0.699908,-0.706308,-0.718542,-0.717161,-0.722452,-0.729653,-0.719663,-0.711197,-0.691234,-0.662268,-0.518095,-0.200980
-0.604692,-0.659754,-0.665861,-0.679996,-0.682988,-0.673884,-0.693607,-0.680618,-0.685791,-0.689971,-0.687201,-0.679171,-0.656533,-0.629799,-0.493284,-0.296917,-0.563682,-0.657494,-0.677072,-0.687641,-0.683193,-0.693846,-0.708747,-0.707651,-0.712376,-0.710842,-0.703794,-0.694248,-0.670183,-0.637056,-0.478343,-0.115511
-0.578317,-0.641691,-0.653416,-0.673922,-0.678454,-0.678089,-0.687845,-0.683840,-0.682028,-0.686279,-0.684485,-0.676158,-0.654279,-0.625881,-0.490825,-0.289793,-0.556085,-0.650290,-0.668459,-0.674763,-0.681073,-0.686549,-0.702465,-0.696522,-0.702707,-0.705274,-0.699465,-0.690777,-0.668935,-0.641030,-0.500491,-0.196975
-0.577054,-0.642994,-0.651414,-0.660488,-0.671776,-0.663006,-0.679832,-0.673738,-0.674495,-0.672670,-0.678705,-0.669387,-0.646589,-0.616302,-0.471995,-0.276732,-0.554261,-0.644321,-0.660359,-0.668729,-0.675137,-0.680653,-0.692743,-0.692827,-0.697424,-0.691671,-0.692763,-0.680372,-0.657256,-0.624303,-0.466145,-0.147113
-0.577567,-0.649986,-0.644464,-0.674491,-0.683171,-0.682645,-0.690882,-0.683563,-0.680717,-0.686203,-0.686634,-0.678199,-0.656455,-0.631382,-0.494969,-0.294736,-0.553129,-0.649877,-0.670217,-0.682781,-0.684182,-0.690460,-0.701713,-0.699519,-0.705772,-0.703757,-0.698019,-0.690227,-0.667789,-0.636613,-0.488356,-0.195143
-0.572276,-0.648765,-0.653711,-0.676282,-0.684319,-0.682254,-0.692332,-0.686742,-0.673995,-0.682550,-0.682227,-0.676628,-0.653456,-0.618677,-0.478609,-0.292000,-0.549744,-0.652305,-0.672824,-0.681458,-0.686555,-0.692581,-0.703075,-0.699246,-0.704448,-0.703778,-0.695562,-0.686185,-0.661372,-0.630580,-0.484787,-0.173348
-0.564366,-0.643758,-0.641410,-0.673480,-0.677613,-0.670296,-0.684384,-0.675590,-0.678970,-0.679566,-0.676848,-0.670460,-0.641050,-0.599824,-0.429151,-0.188692,-0.506760,-0.635517,-0.663856,-0.675440,-0.683019,-0.686825,-0.694554,-0.691292,-0.687177,-0.700120,-0.686577,-0.666116,-0.639161,-0.600814,-0.411670,-0.027554
-0.590363,-0.656230,-0.651984,-0.668462,-0.676087,-0.673244,-0.680702,-0.674733,-0.662752,-0.673337,-0.679366,-0.665672,-0.645536,-0.618633,-0.477053,-0.270518,-0.552779,-0.649595,-0.668528,-0.684946,-0.677428,-0.683390,-0.693895,-0.688983,-0.699022,-0.702241,-0.688374,-0.682822,-0.654939,-0.626496,-0.476905,-0.154377
-0.577346,-0.646231,-0.644451,-0.667687,-0.676702,-0.673211,-0.684149,-0.675641,-0.670241,-0.675506,-0.679405,-0.672155,-0.650342,-0.623593,-0.481280,-0.276802,-0.529264,-0.644179,-0.661083,-0.677145,-0.677327,-0.683766,-0.691299,-0.690298,-0.696793,-0.696014,-0.690004,-0.681552,-0.659004,-0.627624,-0.471714,-0.140081
-0.567470,-0.634306,-0.633316,-0.655964,-0.665547,-0.658845,-0.674460,-0.667020,-0.662499,-0.665329,-0.666914,-0.662789,-0.638856,-0.613111,-0.473772,-0.283212,-0.521849,-0.632598,-0.647945,-0.661062,-0.669949,-0.673625,-0.681820,-0.678648,-0.690818,-0.683181,-0.679154,-0.667009,-0.646589,-0.617711,-0.466826,-0.147479
-0.570922,-0.640138,-0.645794,-0.657188,-0.669286,-0.665420,-0.680892,-0.672118,-0.666790,-0.671269,-0.670893,-0.668539,-0.644663,-0.620367,-0.487605,-0.293493,-0.537201,-0.637144,-0.656542,-0.669885,-0.672926,-0.680640,-0.688162,-0.680206,-0.690447,-0.690284,-0.680741,-0.675491,-0.656497,-0.625042,-0.474886,-0.157486
-0.560812,-0.633830,-0.636649,-0.663471,-0.667918,-0.663934,-0.676852,-0.668187,-0.665911,-0.668576,-0.668386,-0.659038,-0.628494,-0.598076,-0.421352,-0.190421,-0.521472,-0.641001,-0.658483,-0.670682,-0.672298,-0.679952,-0.686372,-0.684722,-0.687598,-0.689729,-0.681282,-0.669273,-0.643837,-0.605450,-0.422474,-0.034632
-0.586876,-0.644603,-0.643836,-0.656627,-0.663042,-0.662569,-0.671159,-0.667616,-0.662783,-0.665861,-0.663164,-0.665131,-0.645411,-0.622997,-0.486128,-0.280037,-0.552784,-0.639720,-0.652985,-0.663829,-0.669763,-0.674152,-0.680435,-0.677174,-0.682742,-0.689335,-0.678293,-0.671933,-0.653760,-0.624807,-0.473561,-0.130323
-0.599333,-0.660610,-0.661968,-0.680638,-0.682839,-0.683780,-0.692798,-0.688038,-0.687280,-0.687436,-0.687146,-0.684705,-0.660321,-0.632448,-0.490971,-0.295757,-0.567431,-0.661312,-0.676487,-0.684851,-0.690233,-0.694333,-0.704423,-0.701359,-0.711879,-0.710098,-0.700119,-0.689385,-0.666421,-0.634120,-0.471787,-0.116644
-0.583663,-0.646905,-0.644349,-0.670051,-0.674410,-0.672904,-0.674470,-0.669109,-0.672837,-0.667700,-0.664281,-0.662517,-0.638245,-0.600734,-0.444538,-0.231952,-0.561934,-0.648394,-0.655933,-0.666019,-0.675792,-0.678146,-0.685295,-0.682108,-0.689920,-0.678906,-0.677251,-0.663300,-0.638409,-0.598058,-0.406754,-0.014394
-0.539463,-0.589240,-0.595006,-0.609566,-0.617277,-0.615685,-0.630986,-0.622004,-0.628446,-0.626797,-0.612813,-0.608939,-0.588072,-0.552221,-0.404102,-0.238949,-0.521579,-0.604220,-0.610464,-0.620575,-0.629487,-0.631764,-0.632744,-0.638357,-0.649350,-0.643688,-0.634220,-0.622391,-0.594728,-0.557135,-0.387529,-0.014242
-0.648590,-0.693064,-0.687883,-0.707944,-0.708852,-0.711933,-0.712348,-0.710748,-0.698220,-0.706531,-0.711267,-0.708413,-0.688551,-0.665993,-0.538030,-0.356604,-0.615341,-0.691752,-0.696584,-0.708338,-0.713891,-0.716092,-0.720272,-0.717559,-0.725361,-0.722292,-0.719466,-0.711406,-0.696694,-0.668894,-0.521610,-0.190334
-0.646962,-0.685382,-0.670369,-0.700013,-0.699021,-0.703031,-0.695998,-0.698299,-0.702273,-0.694018,-0.698367,-0.701929,-0.681968,-0.660805,-0.539310,-0.364835,-0.615972,-0.678856,-0.685654,-0.697374,-0.702424,-0.705649,-0.708195,-0.707733,-0.715870,-0.710312,-0.706504,-0.701606,-0.690526,-0.663333,-0.523860,-0.210732
-0.650385,-0.698413,-0.691883,-0.710200,-0.711271,-0.713528,-0.714548,-0.713431,-0.710416,-0.710231,-0.711035,-0.712415,-0.693302,-0.668055,-0.540037,-0.360394,-0.622087,-0.693668,-0.701669,-0.713261,-0.717409,-0.719320,-0.725120,-0.722239,-0.728562,-0.725464,-0.723786,-0.712114,-0.699830,-0.672432,-0.529804,-0.206906
-0.632241,-0.672342,-0.673629,-0.690913,-0.692498,-0.693316,-0.692502,-0.690291,-0.703181,-0.695770,-0.692958,-0.695101,-0.677232,-0.648871,-0.519180,-0.346993,-0.596714,-0.670553,-0.675755,-0.689515,-0.689729,-0.695918,-0.699312,-0.696976,-0.711125,-0.707088,-0.707037,-0.699413,-0.683491,-0.650998,-0.509721,-0.181339
-0.648585,-0.697977,-0.687933,-0.711449,-0.711649,-0.716233,-0.716272,-0.708877,-0.706599,-0.709679,-0.712628,-0.712465,-0.692506,-0.667369,-0.539311,-0.358768,-0.607250,-0.694084,-0.703023,-0.714589,-0.720181,-0.721870,-0.724597,-0.720914,-0.725082,-0.725271,-0.722847,-0.713582,-0.698115,-0.672684,-0.527319,-0.206480
-0.611342,-0.670950,-0.666861,-0.690097,-0.694720,-0.701016,-0.701099,-0.695272,-0.689569,-0.695212,-0.696949,-0.697752,-0.677498,-0.649918,-0.518474,-0.325115,-0.582059,-0.668285,-0.682200,-0.695395,-0.703588,-0.705410,-0.709891,-0.707884,-0.711184,-0.713740,-0.709692,-0.701073,-0.685579,-0.657334,-0.514918,-0.192406
-0.597687,-0.658583,-0.656493,-0.676007,-0.682511,-0.687835,-0.693451,-0.684986,-0.682108,-0.689349,-0.684958,-0.687928,-0.668617,-0.638173,-0.507096,-0.303654,-0.567246,-0.652512,-0.666954,-0.677026,-0.690007,-0.689387,-0.697448,-0.691991,-0.696209,-0.701593,-0.697617,-0.691251,-0.672967,-0.643073,-0.498418,-0.168816
-0.601853,-0.662705,-0.663773,-0.687608,-0.694847,-0.696000,-0.698757,-0.686094,-0.676300,-0.690139,-0.689640,-0.686920,-0.665644,-0.635835,-0.502914,-0.274563,-0.561341,-0.652210,-0.670902,-0.695454,-0.703879,-0.694694,-0.701036,-0.700768,-0.702094,-0.705028,-0.695582,-0.688756,-0.672178,-0.641569,-0.488199,-0.127308
-0.613979,-0.674100,-0.673757,-0.701689,-0.704546,-0.711504,-0.713465,-0.705936,-0.695133,-0.705697,-0.708204,-0.706970,-0.685663,-0.657542,-0.524967,-0.340681,-0.579375,-0.667399,-0.688065,-0.696656,-0.714963,-0.714357,-0.718673,-0.717825,-0.721277,-0.718245,-0.716017,-0.706435,-0.689410,-0.660225,-0.503644,-0.168460
-0.605864,-0.670467,-0.671993,-0.692065,-0.704157,-0.704034,-0.707615,-0.702653,-0.696887,-0.703448,-0.703713,-0.700891,-0.675236,-0.642266,-0.484427,-0.268211,-0.552232,-0.656336,-0.677079,-0.702271,-0.711416,-0.710284,-0.712687,-0.714612,-0.721010,-0.718012,-0.710024,-0.700782,-0.675224,-0.635846,-0.459905,-0.073754
-0.627291,-0.678736,-0.683582,-0.705490,-0.708160,-0.715560,-0.715599,-0.708856,-0.692547,-0.705517,-0.711750,-0.712785,-0.696543,-0.673591,-0.559816,-0.392424,-0.594713,-0.674897,-0.692187,-0.702730,-0.717639,-0.713262,-0.716259,-0.718155,-0.726096,-0.718400,-0.721653,-0.713967,-0.702887,-0.679228,-0.545832,-0.245726
-0.635024,-0.690128,-0.690809,-0.708057,-0.712388,-0.717156,-0.713533,-0.709464,-0.701366,-0.712426,-0.712693,-0.714596,-0.699863,-0.678849,-0.563112,-0.376847,-0.609133,-0.680961,-0.697007,-0.712421,-0.721163,-0.719355,-0.720195,-0.720549,-0.727288,-0.724903,-0.721875,-0.712678,-0.705795,-0.685832,-0.560548,-0.257716
-0.621246,-0.663807,-0.658896,-0.687004,-0.685516,-0.699257,-0.689861,-0.687204,-0.684978,-0.690480,-0.689729,-0.691457,-0.678521,-0.656738,-0.570267,-0.427472,-0.568480,-0.651532,-0.672411,-0.684176,-0.700289,-0.696954,-0.695127,-0.696435,-0.704438,-0.702287,-0.697690,-0.692518,-0.681440,-0.663607,-0.535068,-0.229572
-0.600834,-0.652307,-0.650504,-0.676180,-0.675296,-0.690258,-0.679102,-0.674095,-0.670611,-0.679538,-0.690451,-0.673621,-0.656245,-0.643847,-0.541843,-0.391454,-0.558872,-0.646109,-0.663954,-0.680867,-0.694092,-0.690236,-0.692909,-0.693653,-0.704816,-0.699151,-0.687027,-0.678511,-0.673230,-0.654618,-0.526231,-0.223348
-0.636030,-0.687506,-0.694422,-0.715025,-0.717321,-0.722552,-0.724334,-0.715572,-0.715861,-0.722376,-0.722984,-0.720523,-0.704316,-0.678871,-0.571541,-0.421432,-0.591104,-0.677200,-0.697161,-0.718525,-0.729219,-0.725897,-0.726971,-0.722687,-0.736641,-0.734281,-0.731252,-0.715546,-0.711208,-0.683072,-0.552504,-0.254441
-0.599432,-0.640273,-0.637761,-0.681514,-0.677267,-0.687814,-0.687240,-0.683936,-0.660175,-0.676492,-0.683485,-0.682019,-0.665446,-0.643030,-0.538303,-0.393746,-0.563955,-0.645850,-0.668446,-0.685674,-0.684387,-0.694604,-0.693547,-0.698251,-0.708979,-0.699370,-0.692512,-0.676928,-0.679784,-0.652866,-0.536054,-0.248440
-0.641442,-0.701064,-0.702968,-0.725905,-0.731735,-0.736375,-0.735351,-0.733285,-0.725800,-0.732250,-0.731535,-0.732273,-0.715478,-0.693048,-0.586525,-0.434893,-0.610330,-0.693514,-0.711724,-0.731451,-0.740023,-0.735299,-0.738450,-0.737944,-0.747200,-0.741494,-0.743387,-0.732802,-0.721911,-0.698166,-0.569423,-0.270129
-0.634924,-0.696807,-0.699390,-0.721338,-0.728981,-0.733330,-0.734437,-0.732197,-0.726430,-0.735008,-0.729957,-0.732430,-0.716813,-0.695958,-0.589297,-0.408611,-0.605744,-0.690699,-0.708074,-0.726581,-0.737505,-0.734409,-0.735968,-0.737706,-0.748932,-0.742483,-0.746609,-0.734269,-0.721977,-0.699400,-0.569526,-0.273640
-0.641368,-0.692156,-0.693895,-0.713736,-0.717565,-0.727590,-0.722976,-0.723536,-0.715309,-0.724788,-0.720524,-0.723751,-0.713419,-0.695361,-0.606201,-0.432964,-0.621179,-0.688170,-0.702372,-0.715297,-0.728212,-0.723689,-0.728707,-0.729453,-0.736410,-0.736031,-0.738995,-0.731730,-0.718454,-0.701435,-0.584109,-0.306695
-0.624694,-0.675422,-0.673366,-0.704831,-0.709659,-0.720715,-0.713745,-0.711922,-0.717948,-0.721547,-0.722069,-0.715716,-0.701778,-0.685387,-0.585252,-0.419675,-0.586624,-0.668504,-0.687266,-0.707819,-0.714514,-0.714647,-0.722994,-0.722219,-0.732809,-0.726931,-0.732880,-0.722149,-0.706864,-0.683345,-0.553311,-0.258840
-0.642291,-0.699542,-0.707031,-0.726367,-0.730983,-0.738941,-0.738748,-0.737754,-0.728330,-0.741033,-0.736482,-0.738648,-0.722049,-0.702781,-0.601627,-0.416451,-0.620244,-0.692448,-0.713772,-0.728009,-0.744234,-0.738672,-0.743856,-0.741773,-0.750247,-0.747136,-0.751211,-0.741958,-0.731312,-0.712413,-0.594214,-0.324354
-0.629187,-0.678331,-0.691393,-0.709782,-0.715101,-0.723333,-0.721136,-0.721920,-0.714786,-0.727177,-0.722058,-0.722739,-0.705402,-0.687796,-0.598725,-0.455089,-0.597963,-0.672312,-0.692895,-0.713567,-0.722547,-0.718621,-0.725868,-0.730690,-0.736736,-0.733636,-0.734981,-0.728307,-0.710034,-0.691639,-0.560811,-0.264269
-0.633345,-0.686571,-0.696382,-0.716604,-0.720035,-0.730392,-0.728174,-0.726896,-0.717251,-0.730363,-0.724890,-0.727546,-0.709067,-0.687521,-0.589912,-0.411864,-0.606313,-0.683571,-0.705300,-0.718037,-0.731983,-0.726247,-0.737376,-0.733891,-0.742724,-0.735409,-0.734369,-0.730378,-0.716520,-0.699709,-0.576640,-0.282900
-0.630191,-0.694068,-0.701104,-0.726075,-0.726795,-0.737601,-0.734504,-0.729467,-0.713729,-0.733391,-0.725300,-0.726650,-0.702987,-0.677221,-0.565926,-0.391956,-0.606830,-0.689180,-0.708421,-0.725058,-0.735475,-0.732177,-0.739102,-0.737478,-0.744732,-0.735972,-0.741324,-0.733268,-0.709573,-0.685332,-0.551193,-0.246221
-0.628353,-0.695597,-0.703988,-0.721504,-0.721551,-0.737438,-0.731714,-0.730728,-0.712975,-0.734972,-0.730233,-0.726045,-0.706591,-0.687449,-0.592491,-0.436785,-0.600423,-0.686967,-0.707198,-0.725893,-0.737962,-0.732607,-0.740316,-0.739645,-0.745683,-0.745623,-0.744961,-0.737758,-0.716197,-0.695109,-0.577668,-0.310498
-0.630637,-0.692214,-0.702057,-0.721509,-0.719128,-0.735936,-0.727060,-0.726620,-0.716794,-0.732706,-0.726166,-0.725492,-0.706019,-0.685995,-0.589811,-0.413521,-0.604636,-0.680224,-0.703107,-0.715671,-0.731502,-0.729158,-0.735353,-0.734763,-0.740297,-0.740256,-0.740744,-0.731214,-0.710025,-0.690784,-0.566052,-0.294624
-0.646072,-0.708159,-0.713036,-0.733675,-0.734279,-0.747258,-0.740694,-0.744055,-0.727324,-0.745773,-0.747682,-0.741932,-0.729204,-0.715271,-0.641715,-0.495465,-0.618861,-0.697156,-0.721245,-0.735372,-0.747086,-0.744229,-0.748038,-0.750503,-0.753946,-0.759656,-0.756453,-0.752476,-0.738066,-0.723104,-0.619607,-0.376825
-0.616030,-0.689369,-0.691990,-0.717070,-0.720325,-0.726274,-0.732339,-0.730621,-0.719211,-0.734636,-0.730664,-0.728076,-0.714537,-0.696730,-0.623259,-0.466864,-0.594495,-0.675115,-0.702359,-0.720909,-0.735712,-0.726525,-0.730995,-0.736543,-0.741483,-0.740625,-0.747726,-0.736719,-0.721605,-0.704117,-0.605488,-0.366822
-0.617107,-0.682122,-0.680892,-0.708123,-0.700799,-0.716031,-0.714174,-0.717024,-0.694744,-0.718059,-0.714689,-0.718917,-0.692372,-0.678727,-0.613626,-0.471482,-0.587988,-0.666905,-0.695250,-0.712354,-0.723653,-0.714076,-0.719924,-0.725341,-0.727020,-0.737797,-0.727294,-0.726734,-0.705807,-0.695318,-0.592334,-0.353117
-0.640732,-0.701031,-0.707165,-0.727111,-0.726545,-0.738666,-0.735724,-0.738023,-0.718656,-0.737894,-0.739658,-0.736129,-0.720275,-0.704943,-0.634363,-0.492324,-0.606265,-0.690631,-0.714709,-0.728189,-0.737787,-0.736735,-0.741516,-0.745396,-0.747990,-0.753531,-0.750647,-0.744228,-0.729748,-0.716694,-0.617536,-0.380721
-0.645755,-0.702449,-0.709478,-0.729711,-0.725692,-0.741041,-0.735727,-0.739082,-0.712686,-0.737795,-0.741090,-0.735995,-0.719819,-0.703001,-0.631483,-0.487959,-0.616320,-0.695341,-0.716672,-0.727397,-0.737786,-0.737921,-0.742757,-0.743158,-0.749738,-0.755149,-0.751843,-0.745523,-0.730126,-0.714596,-0.612627,-0.379333
-0.640084,-0.699233,-0.707794,-0.727199,-0.723952,-0.736518,-0.735252,-0.739066,-0.719964,-0.740089,-0.740350,-0.735172,-0.718595,-0.703748,-0.625229,-0.474702,-0.615242,-0.693351,-0.714912,-0.726738,-0.737673,-0.736469,-0.742508,-0.743606,-0.747183,-0.757781,-0.748506,-0.744773,-0.727286,-0.712336,-0.609389,-0.366837
-0.611947,-0.691939,-0.709123,-0.721666,-0.724519,-0.736875,-0.734639,-0.738512,-0.720665,-0.739502,-0.739094,-0.734257,-0.716590,-0.698325,-0.613299,-0.456562,-0.590590,-0.682294,-0.708079,-0.727288,-0.738219,-0.734592,-0.741406,-0.741310,-0.749407,-0.757990,-0.749354,-0.743783,-0.724668,-0.707818,-0.600940,-0.367430
-0.506651,-0.575009,-0.578363,-0.601370,-0.599827,-0.612673,-0.614235,-0.616137,-0.599241,-0.614836,-0.622304,-0.622148,-0.596832,-0.587299,-0.521357,-0.390586,-0.454673,-0.553600,-0.588708,-0.604576,-0.615055,-0.608638,-0.629089,-0.610036,-0.622809,-0.636891,-0.621076,-0.601317,-0.596840,-0.583317,-0.489415,-0.221403
-0.644112,-0.694505,-0.702612,-0.714649,-0.713356,-0.726328,-0.722994,-0.725552,-0.710411,-0.728123,-0.729112,-0.728180,-0.712093,-0.701815,-0.634804,-0.519301,-0.607806,-0.683998,-0.702654,-0.717364,-0.721924,-0.723984,-0.729350,-0.733110,-0.734771,-0.742438,-0.737216,-0.731539,-0.717316,-0.706285,-0.606769,-0.380432
-0.643849,-0.688401,-0.693555,-0.705991,-0.705984,-0.714039,-0.715788,-0.722292,-0.703348,-0.720546,-0.722114,-0.720731,-0.701671,-0.695790,-0.632657,-0.521867,-0.607710,-0.678383,-0.695968,-0.705701,-0.714280,-0.718777,-0.721170,-0.723143,-0.726535,-0.735662,-0.728375,-0.723774,-0.710719,-0.695250,-0.610362,-0.423111
-0.636194,-0.686311,-0.691923,-0.708176,-0.706970,-0.717731,-0.719217,-0.722395,-0.706049,-0.722558,-0.724123,-0.721362,-0.704516,-0.697965,-0.635050,-0.529147,-0.605308,-0.678182,-0.696106,-0.707058,-0.712675,-0.719543,-0.721767,-0.724544,-0.728964,-0.736303,-0.731099,-0.724907,-0.713086,-0.701262,-0.616860,-0.431463
-0.624527,-0.680453,-0.684130,-0.705069,-0.701967,-0.715896,-0.716040,-0.719768,-0.700568,-0.719626,-0.718230,-0.716510,-0.698494,-0.690397,-0.621622,-0.511039,-0.593716,-0.674644,-0.690049,-0.701335,-0.711324,-0.714938,-0.719058,-0.720152,-0.725736,-0.733834,-0.728804,-0.721377,-0.707484,-0.693602,-0.607941,-0.413608
-0.655916,-0.695721,-0.700641,-0.715759,-0.715542,-0.725208,-0.728481,-0.731845,-0.716155,-0.731250,-0.731961,-0.729202,-0.711417,-0.703499,-0.633009,-0.518352,-0.622039,-0.689714,-0.709735,-0.722282,-0.724206,-0.731762,-0.733912,-0.735082,-0.737482,-0.748266,-0.739101,-0.731211,-0.720762,-0.708928,-0.627312,-0.443939
-0.639987,-0.676476,-0.678655,-0.693142,-0.687929,-0.700499,-0.698837,-0.704338,-0.706933,-0.709131,-0.698649,-0.704971,-0.685091,-0.682285,-0.622474,-0.502157,-0.587351,-0.668724,-0.680083,-0.698405,-0.697375,-0.703948,-0.703206,-0.707925,-0.708399,-0.722732,-0.709993,-0.703221,-0.694081,-0.679158,-0.591404,-0.390953
-0.671554,-0.720806,-0.713975,-0.733208,-0.733751,-0.739269,-0.745220,-0.745550,-0.726262,-0.747358,-0.742551,-0.743394,-0.724281,-0.709822,-0.630431,-0.479886,-0.639040,-0.705989,-0.725765,-0.737003,-0.736804,-0.747532,-0.748731,-0.750368,-0.747114,-0.758611,-0.751450,-0.742319,-0.729876,-0.716227,-0.626665,-0.426414
-0.687447,-0.723551,-0.727819,-0.735786,-0.736817,-0.743537,-0.750053,-0.748488,-0.732423,-0.749828,-0.747711,-0.751419,-0.733453,-0.727104,-0.662113,-0.543648,-0.652225,-0.712657,-0.731274,-0.739640,-0.746396,-0.749812,-0.752655,-0.752384,-0.753492,-0.764419,-0.757373,-0.748446,-0.741254,-0.726290,-0.649966,-0.461022
-0.674744,-0.708141,-0.690991,-0.716404,-0.716000,-0.717478,-0.726819,-0.723651,-0.730343,-0.738204,-0.725727,-0.729956,-0.717623,-0.709810,-0.645517,-0.532178,-0.646809,-0.695056,-0.713067,-0.719724,-0.721461,-0.726150,-0.725972,-0.726617,-0.738643,-0.735625,-0.729946,-0.728747,-0.720501,-0.703990,-0.634454,-0.456983
-0.662310,-0.702997,-0.713535,-0.713832,-0.719043,-0.730515,-0.732255,-0.732779,-0.708694,-0.730628,-0.731171,-0.732032,-0.714332,-0.709558,-0.641830,-0.524253,-0.633216,-0.697503,-0.713340,-0.720542,-0.724464,-0.725561,-0.733134,-0.740426,-0.731204,-0.748370,-0.741031,-0.730196,-0.725199,-0.712002,-0.639769,-0.457448
-0.671120,-0.724475,-0.728370,-0.742576,-0.742439,-0.745697,-0.756650,-0.754718,-0.738097,-0.753445,-0.752619,-0.756146,-0.738808,-0.729713,-0.665145,-0.547379,-0.646029,-0.713689,-0.733582,-0.746219,-0.751240,-0.755004,-0.758732,-0.759455,-0.757837,-0.768347,-0.761584,-0.751770,-0.746232,-0.730577,-0.656304,-0.471656
-0.702879,-0.732087,-0.735398,-0.745198,-0.745969,-0.751014,-0.756441,-0.759646,-0.741768,-0.756730,-0.756341,-0.758787,-0.739501,-0.732710,-0.668193,-0.544595,-0.663472,-0.720853,-0.737743,-0.746886,-0.754428,-0.756541,-0.759676,-0.761591,-0.760577,-0.773963,-0.763795,-0.754445,-0.746528,-0.732219,-0.658343,-0.477695
-0.702495,-0.731173,-0.724180,-0.741975,-0.742642,-0.746899,-0.749600,-0.754961,-0.739340,-0.755473,-0.753619,-0.757823,-0.743371,-0.734263,-0.669529,-0.498432,-0.672307,-0.718404,-0.736190,-0.742325,-0.749335,-0.751158,-0.756980,-0.757623,-0.755398,-0.772920,-0.763792,-0.754211,-0.747143,-0.734930,-0.665425,-0.483666
-0.704085,-0.732701,-0.735265,-0.743017,-0.743399,-0.749119,-0.760645,-0.759132,-0.737787,-0.755247,-0.759965,-0.757770,-0.744390,-0.738491,-0.687791,-0.582137,-0.693274,-0.721235,-0.740325,-0.748313,-0.755033,-0.754277,-0.760623,-0.755086,-0.764280,-0.773470,-0.761641,-0.756889,-0.751677,-0.744401,-0.687925,-0.549741
-0.735360,-0.761000,-0.760554,-0.771244,-0.771957,-0.771212,-0.776824,-0.778821,-0.756559,-0.775925,-0.781633,-0.777731,-0.761296,-0.757515,-0.706332,-0.618466,-0.721882,-0.753542,-0.769805,-0.772897,-0.777937,-0.774029,-0.779889,-0.781709,-0.778195,-0.797210,-0.785206,-0.774324,-0.772032,-0.762365,-0.716776,-0.592984
-0.728320,-0.756830,-0.759028,-0.773970,-0.774313,-0.774143,-0.781610,-0.784610,-0.774321,-0.787363,-0.786361,-0.787210,-0.772888,-0.764918,-0.717133,-0.624086,-0.709297,-0.747497,-0.765498,-0.774545,-0.779634,-0.778744,-0.786079,-0.787712,-0.786134,-0.800452,-0.789350,-0.774908,-0.777341,-0.766543,-0.714280,-0.591174
-0.721950,-0.740981,-0.751171,-0.756206,-0.764444,-0.759547,-0.770622,-0.767377,-0.753980,-0.770689,-0.770339,-0.773166,-0.758603,-0.757099,-0.718074,-0.630641,-0.702244,-0.735038,-0.752607,-0.755163,-0.770992,-0.764912,-0.772022,-0.774330,-0.777892,-0.788836,-0.777885,-0.764127,-0.767454,-0.757298,-0.716263,-0.595676
-0.738531,-0.775036,-0.772072,-0.782325,-0.785110,-0.781881,-0.792832,-0.794325,-0.779541,-0.793042,-0.794089,-0.792255,-0.780006,-0.772141,-0.721173,-0.640587,-0.716828,-0.762684,-0.781611,-0.784939,-0.789679,-0.789871,-0.793754,-0.793965,-0.796609,-0.810984,-0.799665,-0.785081,-0.787942,-0.775465,-0.724574,-0.610923
-0.743616,-0.771523,-0.775326,-0.777181,-0.783521,-0.779786,-0.793208,-0.794601,-0.779191,-0.794010,-0.790007,-0.798493,-0.781440,-0.773893,-0.728363,-0.653966,-0.728961,-0.761629,-0.778189,-0.782746,-0.789146,-0.785242,-0.787868,-0.793296,-0.794085,-0.807343,-0.800177,-0.787334,-0.788756,-0.777930,-0.732816,-0.626507
-0.743881,-0.777630,-0.784895,-0.788627,-0.796060,-0.789577,-0.796695,-0.799468,-0.788573,-0.801646,-0.802782,-0.801784,-0.788182,-0.779413,-0.735124,-0.658109,-0.732049,-0.772490,-0.789600,-0.794912,-0.799603,-0.796649,-0.800799,-0.799622,-0.802516,-0.815970,-0.802741,-0.790748,-0.793050,-0.783671,-0.741297,-0.635436
-0.747406,-0.782453,-0.780451,-0.790320,-0.795198,-0.790500,-0.798260,-0.802355,-0.790154,-0.807467,-0.801915,-0.804518,-0.790782,-0.783033,-0.735912,-0.657916,-0.731634,-0.775501,-0.790280,-0.796692,-0.800217,-0.799430,-0.802244,-0.801516,-0.803521,-0.815887,-0.805587,-0.794054,-0.796749,-0.786871,-0.748054,-0.637041
-0.735683,-0.767583,-0.744293,-0.782543,-0.781559,-0.775650,-0.788142,-0.783553,-0.777704,-0.792310,-0.795113,-0.784818,-0.771463,-0.773568,-0.721822,-0.654448,-0.716653,-0.756167,-0.777568,-0.786676,-0.791570,-0.784097,-0.788917,-0.785129,-0.787005,-0.803136,-0.795588,-0.782314,-0.782730,-0.768402,-0.721182,-0.586934
-0.761137,-0.791705,-0.785536,-0.793774,-0.804356,-0.786524,-0.810622,-0.810166,-0.803734,-0.818660,-0.810863,-0.809776,-0.801588,-0.794603,-0.746993,-0.669235,-0.730631,-0.779768,-0.794916,-0.804529,-0.810492,-0.801421,-0.810071,-0.800603,-0.811480,-0.812949,-0.812648,-0.803496,-0.801690,-0.794929,-0.755974,-0.636918
-0.774714,-0.802467,-0.797427,-0.804406,-0.812705,-0.809685,-0.820541,-0.817183,-0.808331,-0.823021,-0.816320,-0.821975,-0.808869,-0.804212,-0.758981,-0.684378,-0.742104,-0.789729,-0.810519,-0.811767,-0.812727,-0.811315,-0.818856,-0.815140,-0.813204,-0.819084,-0.819271,-0.816945,-0.812394,-0.804805,-0.763903,-0.666906
-0.771278,-0.801829,-0.798137,-0.808891,-0.815549,-0.809833,-0.821791,-0.820951,-0.809541,-0.822396,-0.821119,-0.822512,-0.808566,-0.796171,-0.736747,-0.650370,-0.751152,-0.792692,-0.810551,-0.814281,-0.819711,-0.816190,-0.821525,-0.819762,-0.820353,-0.828025,-0.823578,-0.817587,-0.812001,-0.798382,-0.736375,-0.602959
-0.721557,-0.779819,-0.776364,-0.792523,-0.800131,-0.801818,-0.812354,-0.803806,-0.788962,-0.805799,-0.805187,-0.805017,-0.789821,-0.779897,-0.703622,-0.607630,-0.711664,-0.776737,-0.797476,-0.799341,-0.806514,-0.803956,-0.812110,-0.813076,-0.812226,-0.816828,-0.811922,-0.800535,-0.800236,-0.782587,-0.723790,-0.593102
-0.613633,-0.680971,-0.673225,-0.708035,-0.710595,-0.716577,-0.737610,-0.727165,-0.743003,-0.738838,-0.730526,-0.723582,-0.711275,-0.685132,-0.593167,-0.495735,-0.618049,-0.686455,-0.716078,-0.706799,-0.725549,-0.723528,-0.739930,-0.732366,-0.740200,-0.733668,-0.728424,-0.717266,-0.711364,-0.707928,-0.632521,-0.500360
-0.673642,-0.732694,-0.725358,-0.760035,-0.760910,-0.765819,-0.761558,-0.759367,-0.762967,-0.770263,-0.768247,-0.760129,-0.745493,-0.732133,-0.661580,-0.569671,-0.663216,-0.728164,-0.759668,-0.759148,-0.755880,-0.763623,-0.768334,-0.770322,-0.772976,-0.762926,-0.760341,-0.756568,-0.744219,-0.739669,-0.665210,-0.506199
-0.773980,-0.824793,-0.808954,-0.835714,-0.835571,-0.835947,-0.843699,-0.843140,-0.844547,-0.845010,-0.833163,-0.836398,-0.828511,-0.815459,-0.739483,-0.651488,-0.751698,-0.808318,-0.837576,-0.833642,-0.841403,-0.839285,-0.841655,-0.835203,-0.840515,-0.837247,-0.848946,-0.841262,-0.832317,-0.828906,-0.765857,-0.637051
-0.779945,-0.834775,-0.820431,-0.843036,-0.845477,-0.843579,-0.853221,-0.847820,-0.851448,-0.854751,-0.851752,-0.847751,-0.835815,-0.819313,-0.749016,-0.655211,-0.766972,-0.821100,-0.851753,-0.845999,-0.853232,-0.850778,-0.854381,-0.852710,-0.852315,-0.847034,-0.849067,-0.847505,-0.842367,-0.833420,-0.773270,-0.650310
-0.783821,-0.835904,-0.825890,-0.848015,-0.850225,-0.851177,-0.860884,-0.858684,-0.858219,-0.863421,-0.858687,-0.852945,-0.843757,-0.823033,-0.750854,-0.657929,-0.764224,-0.819891,-0.853579,-0.851323,-0.858051,-0.854526,-0.862572,-0.857546,-0.857939,-0.852673,-0.860475,-0.857184,-0.844061,-0.837983,-0.772286,-0.638183
-0.779511,-0.830271,-0.814567,-0.843892,-0.848810,-0.846761,-0.859264,-0.857248,-0.856383,-0.861985,-0.858782,-0.851494,-0.842571,-0.820999,-0.750429,-0.661779,-0.764105,-0.818871,-0.851199,-0.851545,-0.857001,-0.852484,-0.860517,-0.857269,-0.857333,-0.853205,-0.857494,-0.854577,-0.843040,-0.835854,-0.769029,-0.635558
-0.775731,-0.828872,-0.820300,-0.842472,-0.847154,-0.847320,-0.855646,-0.854799,-0.852443,-0.859176,-0.856422,-0.849905,-0.836728,-0.812997,-0.737029,-0.633119,-0.761090,-0.813455,-0.847319,-0.848315,-0.853321,-0.850858,-0.859469,-0.854643,-0.854665,-0.851415,-0.854361,-0.850433,-0.838252,-0.829512,-0.758833,-0.621456
-0.767226,-0.825498,-0.812928,-0.836196,-0.842689,-0.844526,-0.852019,-0.851234,-0.846113,-0.857552,-0.852146,-0.847427,-0.841954,-0.818422,-0.760636,-0.692808,-0.743290,-0.811838,-0.843849,-0.845518,-0.849675,-0.849506,-0.857819,-0.852122,-0.846624,-0.842754,-0.850427,-0.853780,-0.840611,-0.836947,-0.779182,-0.672240
-0.761027,-0.817368,-0.806582,-0.831362,-0.835556,-0.831882,-0.842988,-0.840512,-0.850259,-0.846566,-0.843894,-0.835757,-0.830653,-0.809317,-0.751690,-0.678123,-0.744780,-0.801821,-0.838326,-0.833914,-0.838376,-0.836757,-0.845355,-0.843479,-0.841382,-0.839630,-0.848718,-0.837318,-0.827176,-0.824841,-0.769871,-0.658055
-0.774492,-0.825121,-0.809101,-0.835715,-0.838870,-0.838898,-0.850980,-0.851374,-0.851551,-0.853694,-0.850957,-0.846928,-0.839394,-0.821392,-0.763330,-0.699156,-0.754185,-0.812353,-0.844117,-0.839811,-0.845469,-0.846657,-0.851438,-0.847418,-0.846692,-0.843659,-0.848748,-0.851682,-0.840523,-0.835994,-0.786069,-0.684897
-0.770447,-0.818196,-0.815626,-0.837301,-0.841466,-0.837167,-0.848532,-0.850223,-0.845176,-0.846996,-0.845880,-0.840576,-0.837122,-0.818460,-0.762693,-0.697663,-0.752196,-0.807097,-0.843860,-0.842553,-0.849977,-0.843734,-0.849973,-0.847190,-0.849584,-0.844225,-0.848402,-0.843987,-0.835256,-0.834064,-0.783887,-0.681373
-0.773157,-0.825329,-0.814860,-0.837812,-0.840931,-0.841075,-0.850596,-0.850411,-0.848592,-0.855777,-0.849703,-0.842862,-0.836868,-0.820486,-0.763867,-0.698864,-0.753181,-0.811714,-0.844878,-0.842982,-0.847919,-0.845720,-0.852247,-0.847820,-0.847551,-0.843668,-0.849251,-0.848448,-0.839827,-0.835210,-0.786045,-0.683865
-0.772417,-0.823658,-0.815004,-0.837706,-0.840340,-0.839751,-0.849516,-0.850585,-0.850112,-0.855917,-0.849140,-0.842211,-0.836128,-0.821706,-0.763996,-0.698642,-0.753202,-0.811211,-0.844271,-0.842625,-0.848086,-0.845945,-0.854831,-0.848282,-0.846399,-0.842127,-0.849788,-0.849051,-0.839377,-0.835945,-0.785002,-0.684677
-0.769256,-0.823047,-0.807764,-0.835046,-0.839187,-0.837869,-0.847671,-0.845223,-0.849471,-0.854539,-0.842517,-0.841924,-0.837254,-0.818194,-0.761142,-0.697273,-0.751251,-0.806990,-0.842399,-0.841613,-0.842677,-0.843874,-0.850803,-0.844264,-0.847011,-0.838717,-0.846354,-0.846354,-0.837564,-0.834519,-0.783053,-0.682422
-0.761973,-0.818776,-0.799288,-0.826813,-0.825566,-0.834988,-0.841191,-0.841355,-0.837116,-0.844696,-0.842546,-0.833667,-0.827974,-0.813677,-0.757556,-0.692801,-0.748473,-0.799591,-0.838168,-0.836330,-0.834320,-0.841882,-0.847219,-0.837714,-0.831749,-0.831484,-0.836335,-0.845056,-0.830917,-0.830077,-0.779324,-0.682233
-0.779712,-0.832347,-0.821677,-0.844474,-0.847774,-0.849734,-0.851786,-0.855093,-0.852231,-0.862057,-0.853789,-0.847342,-0.842636,-0.827704,-0.768667,-0.702130,-0.756387,-0.816470,-0.848683,-0.849124,-0.853589,-0.855290,-0.858303,-0.855173,-0.855498,-0.848445,-0.856523,-0.854433,-0.846162,-0.841009,-0.788411,-0.687236
-0.778998,-0.831105,-0.820690,-0.844453,-0.846021,-0.848360,-0.852610,-0.849719,-0.858063,-0.861989,-0.854552,-0.848769,-0.842351,-0.827322,-0.767877,-0.702615,-0.756799,-0.816062,-0.847458,-0.849145,-0.853756,-0.854628,-0.857191,-0.852697,-0.853679,-0.846582,-0.854769,-0.854423,-0.845664,-0.840466,-0.788055,-0.688170
-0.777587,-0.825211,-0.812600,-0.838899,-0.839470,-0.843440,-0.844066,-0.846692,-0.854225,-0.860749,-0.850147,-0.846274,-0.839241,-0.824657,-0.763796,-0.700453,-0.758528,-0.809968,-0.843686,-0.842468,-0.844787,-0.844857,-0.851492,-0.848818,-0.852311,-0.844336,-0.849626,-0.851845,-0.843253,-0.837314,-0.785280,-0.688509
-0.770726,-0.819536,-0.804868,-0.829444,-0.829861,-0.825912,-0.837397,-0.838905,-0.836547,-0.842009,-0.834890,-0.830743,-0.824520,-0.814399,-0.754086,-0.690137,-0.754327,-0.802508,-0.833330,-0.830058,-0.830469,-0.836068,-0.842909,-0.835121,-0.833868,-0.828667,-0.835939,-0.843326,-0.827235,-0.825605,-0.775227,-0.682997
-0.784573,-0.834180,-0.826638,-0.850707,-0.852912,-0.849681,-0.856180,-0.858384,-0.862369,-0.867157,-0.860963,-0.853157,-0.848760,-0.830791,-0.766065,-0.696545,-0.770991,-0.822846,-0.854958,-0.851228,-0.859441,-0.856614,-0.858813,-0.862806,-0.864259,-0.858150,-0.859508,-0.855417,-0.851525,-0.844222,-0.790258,-0.688426
-0.784918,-0.834872,-0.826336,-0.848895,-0.849971,-0.854722,-0.855409,-0.854209,-0.867602,-0.869100,-0.859554,-0.853626,-0.848072,-0.832342,-0.770109,-0.703527,-0.766695,-0.819850,-0.852910,-0.851192,-0.852766,-0.855819,-0.857654,-0.859511,-0.860916,-0.854074,-0.860259,-0.859834,-0.850360,-0.842780,-0.790845,-0.691506
-0.774487,-0.821131,-0.815831,-0.838110,-0.835526,-0.843226,-0.840164,-0.841875,-0.845676,-0.855887,-0.842905,-0.841132,-0.835096,-0.818196,-0.755843,-0.671299,-0.758928,-0.808976,-0.835153,-0.839073,-0.839324,-0.839630,-0.849777,-0.845409,-0.847672,-0.835649,-0.845215,-0.845919,-0.837953,-0.829149,-0.776302,-0.672560
-0.777196,-0.825279,-0.819373,-0.839627,-0.839828,-0.843038,-0.845337,-0.843804,-0.856649,-0.859462,-0.847916,-0.844536,-0.838271,-0.821542,-0.754740,-0.678401,-0.755964,-0.808924,-0.841823,-0.841058,-0.844554,-0.845676,-0.850003,-0.850149,-0.853130,-0.843945,-0.849949,-0.847524,-0.838952,-0.830414,-0.777590,-0.666968
-0.765908,-0.816123,-0.815060,-0.831194,-0.830829,-0.836262,-0.837240,-0.835955,-0.849517,-0.851724,-0.838753,-0.839626,-0.827183,-0.809558,-0.745546,-0.668935,-0.749426,-0.800207,-0.831765,-0.833567,-0.833970,-0.835479,-0.837556,-0.840182,-0.838109,-0.827093,-0.843610,-0.843375,-0.827882,-0.818136,-0.769516,-0.662274
-0.769558,-0.820013,-0.805696,-0.831436,-0.833303,-0.837348,-0.835016,-0.834322,-0.855224,-0.854505,-0.840409,-0.839821,-0.832625,-0.817424,-0.750895,-0.673723,-0.752971,-0.800135,-0.837235,-0.836744,-0.841466,-0.838907,-0.843257,-0.844819,-0.847214,-0.838617,-0.842241,-0.840550,-0.833773,-0.826298,-0.773492,-0.669064
-0.763038,-0.823492,-0.825738,-0.840756,-0.842510,-0.846155,-0.851315,-0.845900,-0.860312,-0.864819,-0.854587,-0.848880,-0.840212,-0.822834,-0.749644,-0.665468,-0.757021,-0.807839,-0.845244,-0.845824,-0.848570,-0.851246,-0.852076,-0.854264,-0.857516,-0.843660,-0.853397,-0.851132,-0.841721,-0.832160,-0.775149,-0.668975
-0.781878,-0.827161,-0.830786,-0.844714,-0.845089,-0.849853,-0.851962,-0.849504,-0.859193,-0.864825,-0.854427,-0.850271,-0.842127,-0.823592,-0.755538,-0.675287,-0.759789,-0.814139,-0.845703,-0.845980,-0.850738,-0.850292,-0.855535,-0.857342,-0.860739,-0.849214,-0.854363,-0.850614,-0.841934,-0.832507,-0.772279,-0.660996
-0.656728,-0.766602,-0.781325,-0.798928,-0.796333,-0.812773,-0.808235,-0.813489,-0.828044,-0.827017,-0.813921,-0.803956,-0.788151,-0.763078,-0.632767,-0.512984,-0.661759,-0.753888,-0.800687,-0.800409,-0.799487,-0.804974,-0.814941,-0.818642,-0.822244,-0.808853,-0.825943,-0.812275,-0.792789,-0.772096,-0.693038,-0.552390
-0.761585,-0.775489,-0.775676,-0.802439,-0.802104,-0.813994,-0.809066,-0.804999,-0.822550,-0.824739,-0.814031,-0.817595,-0.808957,-0.789473,-0.752312,-0.685786,-0.730310,-0.766244,-0.799726,-0.800137,-0.811905,-0.807481,-0.818209,-0.820149,-0.825220,-0.824856,-0.798607,-0.804381,-0.806633,-0.800420,-0.758136,-0.722141
-0.847625,-0.869871,-0.865191,-0.874626,-0.879389,-0.874387,-0.871354,-0.877378,-0.878026,-0.889441,-0.885181,-0.882008,-0.879931,-0.873364,-0.835591,-0.786630,-0.812517,-0.849571,-0.874472,-0.880879,-0.876681,-0.878219,-0.874692,-0.879917,-0.884196,-0.884669,-0.885146,-0.888315,-0.881429,-0.876285,-0.844827,-0.798150
-0.841211,-0.860299,-0.863229,-0.874137,-0.870202,-0.869472,-0.874428,-0.875361,-0.875190,-0.889312,-0.881783,-0.877649,-0.881339,-0.871328,-0.836351,-0.783087,-0.810927,-0.853246,-0.864527,-0.875506,-0.876657,-0.874511,-0.879834,-0.876459,-0.885633,-0.882566,-0.878439,-0.883595,-0.880057,-0.873729,-0.841146,-0.783961
-0.850468,-0.865234,-0.865378,-0.874942,-0.878284,-0.872348,-0.876416,-0.876003,-0.877092,-0.894900,-0.890445,-0.883093,-0.887115,-0.876981,-0.843395,-0.813432,-0.803856,-0.844603,-0.868420,-0.876861,-0.873710,-0.877117,-0.881099,-0.881417,-0.883127,-0.888437,-0.884027,-0.882306,-0.881308,-0.876361,-0.846283,-0.788039
-0.859812,-0.875238,-0.870162,-0.879730,-0.885154,-0.880012,-0.877209,-0.884670,-0.874704,-0.896996,-0.894217,-0.885270,-0.889413,-0.883097,-0.858504,-0.822976,-0.843668,-0.869626,-0.885101,-0.889670,-0.880685,-0.883909,-0.887758,-0.889518,-0.885135,-0.889369,-0.889310,-0.891387,-0.886582,-0.884539,-0.867194,-0.829949
-0.866526,-0.881921,-0.878436,-0.885914,-0.887557,-0.881293,-0.882733,-0.885809,-0.883156,-0.900635,-0.892560,-0.890117,-0.891602,-0.887945,-0.858872,-0.819521,-0.840413,-0.866944,-0.886937,-0.885051,-0.880990,-0.885175,-0.890521,-0.889631,-0.890625,-0.891530,-0.892016,-0.894387,-0.888965,-0.885084,-0.869936,-0.844424
-0.868928,-0.885297,-0.880109,-0.888535,-0.892627,-0.886270,-0.885292,-0.889076,-0.884732,-0.900064,-0.893893,-0.893599,-0.895028,-0.890431,-0.860570,-0.824494,-0.848864,-0.875848,-0.890739,-0.890194,-0.890452,-0.886881,-0.893755,-0.895153,-0.895840,-0.892860,-0.894882,-0.894463,-0.894031,-0.883773,-0.872998,-0.843764
-0.852594,-0.864033,-0.873295,-0.875653,-0.885361,-0.874053,-0.881282,-0.875820,-0.878710,-0.889376,-0.879698,-0.880060,-0.889188,-0.880351,-0.847589,-0.817646,-0.828316,-0.858046,-0.875965,-0.876774,-0.883513,-0.874767,-0.883233,-0.886072,-0.887417,-0.885791,-0.885791,-0.883431,-0.875116,-0.876222,-0.859561,-0.835351
-0.889026,-0.900245,-0.888311,-0.899378,-0.902920,-0.895305,-0.897947,-0.899309,-0.888910,-0.907725,-0.909537,-0.902164,-0.905240,-0.899941,-0.868482,-0.828848,-0.871802,-0.888085,-0.899662,-0.899233,-0.895671,-0.897266,-0.900021,-0.903973,-0.907597,-0.904932,-0.907230,-0.905349,-0.902617,-0.896382,-0.879732,-0.849311
-0.888943,-0.900530,-0.896814,-0.902237,-0.901967,-0.894351,-0.896066,-0.898195,-0.887711,-0.907251,-0.906263,-0.902677,-0.903923,-0.898972,-0.867414,-0.826573,-0.868625,-0.887540,-0.900573,-0.901558,-0.899887,-0.898841,-0.901298,-0.903240,-0.903973,-0.902475,-0.905783,-0.908585,-0.901860,-0.896919,-0.881042,-0.851935
-0.886169,-0.899136,-0.889422,-0.893999,-0.898160,-0.894698,-0.894892,-0.897941,-0.888064,-0.904766,-0.906317,-0.894746,-0.899157,-0.897799,-0.866701,-0.828870,-0.865562,-0.882220,-0.894457,-0.898860,-0.892005,-0.892541,-0.900969,-0.901355,-0.900298,-0.901842,-0.901839,-0.903521,-0.901779,-0.893286,-0.878939,-0.848469
-0.887351,-0.895956,-0.891259,-0.899737,-0.895368,-0.897019,-0.898637,-0.897789,-0.888271,-0.903671,-0.910015,-0.903117,-0.897126,-0.901138,-0.870327,-0.829215,-0.873275,-0.884927,-0.895159,-0.896964,-0.890545,-0.895644,-0.902194,-0.902970,-0.901067,-0.904444,-0.903103,-0.903584,-0.899987,-0.898028,-0.877657,-0.848336
-0.892717,-0.907215,-0.891665,-0.904202,-0.904021,-0.897013,-0.895505,-0.898382,-0.893490,-0.908926,-0.911335,-0.910099,-0.909037,-0.905838,-0.873426,-0.831711,-0.877225,-0.890268,-0.901761,-0.904962,-0.898328,-0.901471,-0.906982,-0.905645,-0.909353,-0.904962,-0.906933,-0.909643,-0.906436,-0.902148,-0.884158,-0.855349
-0.896711,-0.911484,-0.901001,-0.910885,-0.905872,-0.904278,-0.910636,-0.906097,-0.891511,-0.912745,-0.917371,-0.910239,-0.906799,-0.909641,-0.877596,-0.835773,-0.876181,-0.897181,-0.904982,-0.908137,-0.897638,-0.904308,-0.910284,-0.915487,-0.909315,-0.915820,-0.912687,-0.916475,-0.908673,-0.905981,-0.886736,-0.855389
-0.893026,-0.912059,-0.893722,-0.909259,-0.904633,-0.902719,-0.908502,-0.905541,-0.891272,-0.910030,-0.918330,-0.911650,-0.911171,-0.909637,-0.878109,-0.836155,-0.874924,-0.895044,-0.903627,-0.907357,-0.900239,-0.904873,-0.908265,-0.913365,-0.911680,-0.915066,-0.911905,-0.916196,-0.909370,-0.904278,-0.886604,-0.853731
-0.893766,-0.911855,-0.893667,-0.908764,-0.907149,-0.903155,-0.908544,-0.906326,-0.892511,-0.913237,-0.916375,-0.911182,-0.909980,-0.908307,-0.876654,-0.835504,-0.873921,-0.894487,-0.903234,-0.905805,-0.900398,-0.903798,-0.907115,-0.912008,-0.910241,-0.913717,-0.912062,-0.915480,-0.909364,-0.901434,-0.886854,-0.858676
-0.891365,-0.905206,-0.890562,-0.903789,-0.903959,-0.897742,-0.902949,-0.902003,-0.887977,-0.907747,-0.913499,-0.910937,-0.907520,-0.906545,-0.879287,-0.838723,-0.872540,-0.892666,-0.899099,-0.905971,-0.896480,-0.900002,-0.900056,-0.907809,-0.904204,-0.904079,-0.907722,-0.912586,-0.904468,-0.899230,-0.888320,-0.857270
-0.899453,-0.915255,-0.895271,-0.912105,-0.910788,-0.905732,-0.914324,-0.911961,-0.894260,-0.912843,-0.920032,-0.914639,-0.913768,-0.912836,-0.879046,-0.840413,-0.882281,-0.899122,-0.907881,-0.912117,-0.906066,-0.908881,-0.913029,-0.918357,-0.914484,-0.919644,-0.913379,-0.919525,-0.911267,-0.907203,-0.891796,-0.860624
-0.902192,-0.915890,-0.897606,-0.913597,-0.913699,-0.906222,-0.918146,-0.915215,-0.895765,-0.915539,-0.922296,-0.917881,-0.915153,-0.915056,-0.884588,-0.843809,-0.886970,-0.905025,-0.910538,-0.913384,-0.909754,-0.911802,-0.915617,-0.920564,-0.913986,-0.917594,-0.915472,-0.922257,-0.914375,-0.911060,-0.894015,-0.860717
-0.898414,-0.913767,-0.891998,-0.906687,-0.901476,-0.903885,-0.912802,-0.908597,-0.896648,-0.914604,-0.916809,-0.912764,-0.913599,-0.915823,-0.884739,-0.833869,-0.881483,-0.896358,-0.900641,-0.901610,-0.900597,-0.905049,-0.903600,-0.914911,-0.910153,-0.918987,-0.908880,-0.914797,-0.912226,-0.905018,-0.890453,-0.856974
-0.907573,-0.917375,-0.896413,-0.916423,-0.908254,-0.912888,-0.916982,-0.913164,-0.893414,-0.912716,-0.915741,-0.907410,-0.917461,-0.916283,-0.887468,-0.849284,-0.892285,-0.909210,-0.908096,-0.913397,-0.906770,-0.911212,-0.919448,-0.918817,-0.913494,-0.909427,-0.910934,-0.921121,-0.911768,-0.912270,-0.895731,-0.866447
-0.889834,-0.884781,-0.868528,-0.884967,-0.892468,-0.871385,-0.888729,-0.890211,-0.864725,-0.883300,-0.884010,-0.898011,-0.895367,-0.887712,-0.873546,-0.839964,-0.873520,-0.887002,-0.887358,-0.891075,-0.880303,-0.880852,-0.890236,-0.898568,-0.887696,-0.889627,-0.881866,-0.888757,-0.891548,-0.889907,-0.896200,-0.895457
-0.911632,-0.929504,-0.914836,-0.925926,-0.926007,-0.923508,-0.934894,-0.931712,-0.909446,-0.924702,-0.937034,-0.930788,-0.929823,-0.939424,-0.929869,-0.929982,-0.910879,-0.923352,-0.921783,-0.927282,-0.924720,-0.925512,-0.932763,-0.934865,-0.923768,-0.923588,-0.929848,-0.938516,-0.936798,-0.939765,-0.932298,-0.923394
-0.931572,-0.938327,-0.916680,-0.934966,-0.930690,-0.928885,-0.933387,-0.934526,-0.906130,-0.926509,-0.938491,-0.934488,-0.932613,-0.938971,-0.931762,-0.929611,-0.921202,-0.936043,-0.932600,-0.936948,-0.930781,-0.931529,-0.932250,-0.940531,-0.927748,-0.926831,-0.934457,-0.933506,-0.937047,-0.939506,-0.926801,-0.927847
-0.927649,-0.934728,-0.919409,-0.933803,-0.935762,-0.929980,-0.935796,-0.939324,-0.901802,-0.921159,-0.940575,-0.934128,-0.932573,-0.936814,-0.929283,-0.925007,-0.927298,-0.937962,-0.934943,-0.936407,-0.930069,-0.932359,-0.934571,-0.939602,-0.934438,-0.933998,-0.933657,-0.941708,-0.937787,-0.942527,-0.934951,-0.926691
-0.930360,-0.936217,-0.912145,-0.930617,-0.937096,-0.927128,-0.936347,-0.939745,-0.910544,-0.928402,-0.941232,-0.933957,-0.935194,-0.937618,-0.928893,-0.928339,-0.922736,-0.936257,-0.934947,-0.937708,-0.931574,-0.932516,-0.934026,-0.939597,-0.932103,-0.938355,-0.933663,-0.942038,-0.938260,-0.941867,-0.934358,-0.925899
-0.926242,-0.930417,-0.904451,-0.923925,-0.931200,-0.925484,-0.931584,-0.937067,-0.899176,-0.920312,-0.936386,-0.929975,-0.930932,-0.934224,-0.928991,-0.922293,-0.919446,-0.930852,-0.929643,-0.929033,-0.924830,-0.930875,-0.926261,-0.933851,-0.929112,-0.926192,-0.928488,-0.936458,-0.932501,-0.935489,-0.927495,-0.914774
-0.924801,-0.922563,-0.912672,-0.924038,-0.929354,-0.926058,-0.932847,-0.930982,-0.910110,-0.921507,-0.928221,-0.929385,-0.922320,-0.934336,-0.922872,-0.921710,-0.920846,-0.928644,-0.932156,-0.926820,-0.922397,-0.923222,-0.927526,-0.928087,-0.928962,-0.913500,-0.923770,-0.927852,-0.926831,-0.935398,-0.930302,-0.916907
-0.898328,-0.911929,-0.908364,-0.921108,-0.918204,-0.920608,-0.935616,-0.926489,-0.903968,-0.916570,-0.931328,-0.921677,-0.922864,-0.925227,-0.919121,-0.903776,-0.864206,-0.912800,-0.920150,-0.918165,-0.921578,-0.924897,-0.927849,-0.924953,-0.925581,-0.927603,-0.916458,-0.930233,-0.929004,-0.932539,-0.915945,-0.905267
-0.922869,-0.927299,-0.911598,-0.929549,-0.928172,-0.926198,-0.938442,-0.934702,-0.910269,-0.920616,-0.937362,-0.932488,-0.929429,-0.931665,-0.925289,-0.918111,-0.900939,-0.931071,-0.933502,-0.927896,-0.924540,-0.932506,-0.933863,-0.935920,-0.932618,-0.931732,-0.928947,-0.936966,-0.935751,-0.939183,-0.930154,-0.912413
-0.913018,-0.918510,-0.893636,-0.912107,-0.922447,-0.906888,-0.928953,-0.925751,-0.909901,-0.917307,-0.926576,-0.919783,-0.920517,-0.919564,-0.918442,-0.906403,-0.892214,-0.916902,-0.914652,-0.906322,-0.906600,-0.919221,-0.919702,-0.923441,-0.918956,-0.922449,-0.915716,-0.925622,-0.915997,-0.925099,-0.910958,-0.892936
-0.915902,-0.919159,-0.901603,-0.924402,-0.927437,-0.922107,-0.934623,-0.933344,-0.904811,-0.918594,-0.929907,-0.927858,-0.926213,-0.922996,-0.919151,-0.909597,-0.891560,-0.922846,-0.924870,-0.920360,-0.924918,-0.927486,-0.927911,-0.931403,-0.929005,-0.923596,-0.923599,-0.931195,-0.930210,-0.933617,-0.922557,-0.909539
-0.907492,-0.905819,-0.890251,-0.915510,-0.917009,-0.913073,-0.927131,-0.924383,-0.894955,-0.911347,-0.918879,-0.922970,-0.919852,-0.916882,-0.912339,-0.903567,-0.887232,-0.916127,-0.917720,-0.914372,-0.914831,-0.920591,-0.917591,-0.927373,-0.916157,-0.916498,-0.915052,-0.926486,-0.924397,-0.929471,-0.917069,-0.904145
-0.891589,-0.899528,-0.880319,-0.903800,-0.906934,-0.908621,-0.922107,-0.917365,-0.892799,-0.901285,-0.914340,-0.914162,-0.909729,-0.909329,-0.898615,-0.894315,-0.879223,-0.908448,-0.903855,-0.900506,-0.903943,-0.909290,-0.913771,-0.912714,-0.908407,-0.908502,-0.906185,-0.917546,-0.912668,-0.919872,-0.907323,-0.887692
-0.894749,-0.889115,-0.889943,-0.905334,-0.908130,-0.900401,-0.918344,-0.914330,-0.887399,-0.897827,-0.912991,-0.904813,-0.904781,-0.904154,-0.892196,-0.887066,-0.874519,-0.906175,-0.910354,-0.901473,-0.894176,-0.900066,-0.910640,-0.910339,-0.909334,-0.901897,-0.893368,-0.908597,-0.911286,-0.914278,-0.903740,-0.890138
-0.899218,-0.907531,-0.888092,-0.913381,-0.916766,-0.908241,-0.918388,-0.914418,-0.889967,-0.906845,-0.917464,-0.915083,-0.911295,-0.910757,-0.904865,-0.897751,-0.880189,-0.908786,-0.909031,-0.909280,-0.910389,-0.910364,-0.912802,-0.917118,-0.911632,-0.909562,-0.911109,-0.915216,-0.917737,-0.920061,-0.911668,-0.897744
-0.902136,-0.908884,-0.889628,-0.915806,-0.919396,-0.913715,-0.920757,-0.919857,-0.890236,-0.908735,-0.919868,-0.917993,-0.917208,-0.913826,-0.909821,-0.904731,-0.882304,-0.912612,-0.914493,-0.911029,-0.914024,-0.914917,-0.915335,-0.920625,-0.920428,-0.910536,-0.910496,-0.916510,-0.921549,-0.924420,-0.915269,-0.904489
-0.898004,-0.905366,-0.880552,-0.912569,-0.916415,-0.911190,-0.917376,-0.913635,-0.893989,-0.909523,-0.917138,-0.910750,-0.911990,-0.912026,-0.905237,-0.894847,-0.874757,-0.901910,-0.911146,-0.900766,-0.908978,-0.908198,-0.913504,-0.919063,-0.915680,-0.905595,-0.907757,-0.915824,-0.913147,-0.916073,-0.902281,-0.900468
-0.903520,-0.908571,-0.892784,-0.916301,-0.918339,-0.911256,-0.920331,-0.918290,-0.890030,-0.911570,-0.919558,-0.919341,-0.917413,-0.912029,-0.909694,-0.905298,-0.877854,-0.914578,-0.916055,-0.908334,-0.917042,-0.918317,-0.917864,-0.921775,-0.922613,-0.910848,-0.916976,-0.918350,-0.922935,-0.924016,-0.913677,-0.902405
-0.869273,-0.874084,-0.852973,-0.884588,-0.887317,-0.883334,-0.892968,-0.891432,-0.863597,-0.880862,-0.888743,-0.890396,-0.884987,-0.884399,-0.880009,-0.874397,-0.849707,-0.885918,-0.874494,-0.880661,-0.889345,-0.896991,-0.894480,-0.887936,-0.893737,-0.884198,-0.892418,-0.890439,-0.896746,-0.889830,-0.877697,-0.865083
-0.890417,-0.896213,-0.887830,-0.905259,-0.909284,-0.897972,-0.906839,-0.908932,-0.889956,-0.902418,-0.908082,-0.908091,-0.902421,-0.902982,-0.901305,-0.893576,-0.867004,-0.896727,-0.898870,-0.900304,-0.903279,-0.904989,-0.905341,-0.907996,-0.905747,-0.897365,-0.903524,-0.906011,-0.910970,-0.913692,-0.901832,-0.891088
-0.884833,-0.888766,-0.875855,-0.894116,-0.894269,-0.890438,-0.895254,-0.891776,-0.875022,-0.890694,-0.898678,-0.898452,-0.888329,-0.896056,-0.877152,-0.874685,-0.863901,-0.895875,-0.887243,-0.896719,-0.895941,-0.892156,-0.902375,-0.901258,-0.896300,-0.891742,-0.891899,-0.901378,-0.895631,-0.906056,-0.895778,-0.880059
-0.890492,-0.894728,-0.883374,-0.903267,-0.904747,-0.898106,-0.906495,-0.907459,-0.882187,-0.895739,-0.908288,-0.905642,-0.901493,-0.901760,-0.894738,-0.888836,-0.868710,-0.900191,-0.899262,-0.901258,-0.901691,-0.907402,-0.906441,-0.906934,-0.904270,-0.897023,-0.904576,-0.905997,-0.907436,-0.910955,-0.899060,-0.886957
-0.877436,-0.878762,-0.873959,-0.880784,-0.887619,-0.881338,-0.892602,-0.893717,-0.853107,-0.881179,-0.887373,-0.891485,-0.884924,-0.879583,-0.878236,-0.872205,-0.849812,-0.883362,-0.885190,-0.881435,-0.888667,-0.886524,-0.890463,-0.888050,-0.886252,-0.887387,-0.878152,-0.887467,-0.888025,-0.897164,-0.884688,-0.877089
-0.882859,-0.888296,-0.879397,-0.895079,-0.899235,-0.893585,-0.897259,-0.897066,-0.873873,-0.890219,-0.901042,-0.898859,-0.894319,-0.896145,-0.886302,-0.883386,-0.862935,-0.890979,-0.892360,-0.893126,-0.896270,-0.898410,-0.903201,-0.899880,-0.897740,-0.896442,-0.896605,-0.901323,-0.902142,-0.904733,-0.894285,-0.881444
-0.876645,-0.886021,-0.880015,-0.897129,-0.901115,-0.889918,-0.900492,-0.898124,-0.871252,-0.890126,-0.902665,-0.900172,-0.891935,-0.892988,-0.878832,-0.866310,-0.857507,-0.893155,-0.890598,-0.891439,-0.895925,-0.898991,-0.902688,-0.900571,-0.893741,-0.893227,-0.892001,-0.899655,-0.900624,-0.898737,-0.890754,-0.868248
-0.886764,-0.888683,-0.879826,-0.898944,-0.901930,-0.894673,-0.900772,-0.901348,-0.877915,-0.895327,-0.900193,-0.900380,-0.896335,-0.896825,-0.888298,-0.881843,-0.864286,-0.895897,-0.893038,-0.894140,-0.895734,-0.898725,-0.899857,-0.899410,-0.897352,-0.896622,-0.895673,-0.901962,-0.901564,-0.904071,-0.893041,-0.882470
-0.885428,-0.889796,-0.879625,-0.895936,-0.900744,-0.895114,-0.896122,-0.900448,-0.873264,-0.893635,-0.901244,-0.900418,-0.893480,-0.895982,-0.887792,-0.878532,-0.859408,-0.892209,-0.890637,-0.894224,-0.895470,-0.895997,-0.897203,-0.898364,-0.895177,-0.898680,-0.893528,-0.897395,-0.899691,-0.901238,-0.892357,-0.879918
-0.882628,-0.886035,-0.881211,-0.896215,-0.904040,-0.898234,-0.897259,-0.898973,-0.878636,-0.894406,-0.903848,-0.902638,-0.895583,-0.899462,-0.889125,-0.881211,-0.863946,-0.893309,-0.893113,-0.896149,-0.895654,-0.900081,-0.901619,-0.901274,-0.894630,-0.895208,-0.895534,-0.902632,-0.903351,-0.906464,-0.895015,-0.883488
-0.883024,-0.891659,-0.876217,-0.894905,-0.900739,-0.893483,-0.898197,-0.900493,-0.876545,-0.893598,-0.900468,-0.899619,-0.894570,-0.893652,-0.888684,-0.877381,-0.860722,-0.893100,-0.890499,-0.894303,-0.894374,-0.899297,-0.898673,-0.899111,-0.897196,-0.898499,-0.893583,-0.903216,-0.900265,-0.903722,-0.894044,-0.881178
-0.885057,-0.893285,-0.879866,-0.896946,-0.902751,-0.891848,-0.899650,-0.902337,-0.876096,-0.894917,-0.900540,-0.901066,-0.895554,-0.896856,-0.889466,-0.878994,-0.860611,-0.893534,-0.892059,-0.896849,-0.893815,-0.900515,-0.900255,-0.900181,-0.897298,-0.898987,-0.894913,-0.903457,-0.901358,-0.904782,-0.894338,-0.881881
-0.880107,-0.888873,-0.872087,-0.894596,-0.895042,-0.886208,-0.897775,-0.898337,-0.871867,-0.891676,-0.896346,-0.895225,-0.892032,-0.891080,-0.884555,-0.874008,-0.855734,-0.888322,-0.883653,-0.890816,-0.892738,-0.896020,-0.897906,-0.897239,-0.895312,-0.897107,-0.890189,-0.900211,-0.897691,-0.899409,-0.889876,-0.876041
-0.870780,-0.878556,-0.856831,-0.884724,-0.891307,-0.877829,-0.884710,-0.891683,-0.857414,-0.883230,-0.884372,-0.884447,-0.883499,-0.882403,-0.875717,-0.864840,-0.844544,-0.878708,-0.878546,-0.881715,-0.886164,-0.887441,-0.890185,-0.887809,-0.887306,-0.887532,-0.881953,-0.887277,-0.885963,-0.889905,-0.881981,-0.862775
-0.872578,-0.877702,-0.865581,-0.884323,-0.888039,-0.878131,-0.882466,-0.888336,-0.861759,-0.879949,-0.884274,-0.884349,-0.881513,-0.881736,-0.876267,-0.864066,-0.845605,-0.874214,-0.877378,-0.881180,-0.881132,-0.885485,-0.887653,-0.886568,-0.885294,-0.886566,-0.884029,-0.886306,-0.884421,-0.887000,-0.879921,-0.858084
-0.877062,-0.891868,-0.876539,-0.896057,-0.902068,-0.886230,-0.895869,-0.897091,-0.874359,-0.896424,-0.897700,-0.897917,-0.894384,-0.894891,-0.887452,-0.877545,-0.861524,-0.892909,-0.889018,-0.897046,-0.896435,-0.896226,-0.897736,-0.898574,-0.896781,-0.898349,-0.893170,-0.896172,-0.899152,-0.899724,-0.893679,-0.877355
-0.875463,-0.891941,-0.879458,-0.894963,-0.898909,-0.887532,-0.895032,-0.898804,-0.872606,-0.896774,-0.897756,-0.898497,-0.895840,-0.895085,-0.887869,-0.877294,-0.847561,-0.891288,-0.890157,-0.895580,-0.895754,-0.897469,-0.900120,-0.896890,-0.896974,-0.896749,-0.892729,-0.897353,-0.897639,-0.901138,-0.894420,-0.876221
-0.876264,-0.896202,-0.881989,-0.897408,-0.905278,-0.890518,-0.895236,-0.900306,-0.873900,-0.898931,-0.899320,-0.900280,-0.897689,-0.896834,-0.891614,-0.886451,-0.858633,-0.894301,-0.890754,-0.899636,-0.898547,-0.900589,-0.901876,-0.900721,-0.899201,-0.900470,-0.895736,-0.899355,-0.900856,-0.902996,-0.898365,-0.877322
-0.884336,-0.899280,-0.884972,-0.899708,-0.905445,-0.891035,-0.894507,-0.900490,-0.873774,-0.899874,-0.898028,-0.902205,-0.899518,-0.898678,-0.893339,-0.888507,-0.871578,-0.896567,-0.893847,-0.898774,-0.901718,-0.901459,-0.903259,-0.902010,-0.898477,-0.899845,-0.897525,-0.901000,-0.901643,-0.903227,-0.899504,-0.883633
-0.879742,-0.894712,-0.872965,-0.893146,-0.900414,-0.884334,-0.893698,-0.896981,-0.868788,-0.896218,-0.894590,-0.894842,-0.892086,-0.889193,-0.887556,-0.882699,-0.868390,-0.891480,-0.891167,-0.890312,-0.896437,-0.893438,-0.894145,-0.898990,-0.890160,-0.888474,-0.887776,-0.890610,-0.893577,-0.895154,-0.894557,-0.875378
-0.883842,-0.900722,-0.883593,-0.900773,-0.904175,-0.891167,-0.897512,-0.897858,-0.877280,-0.899064,-0.905834,-0.903949,-0.901530,-0.904347,-0.897437,-0.893096,-0.876871,-0.898001,-0.894165,-0.900801,-0.899583,-0.903537,-0.903491,-0.901685,-0.899447,-0.903339,-0.897419,-0.901774,-0.903345,-0.906278,-0.903770,-0.888611
-0.892211,-0.899311,-0.879314,-0.898490,-0.903185,-0.898357,-0.905723,-0.904717,-0.880340,-0.904905,-0.910745,-0.902317,-0.903574,-0.903073,-0.898512,-0.895564,-0.879171,-0.896687,-0.899978,-0.898900,-0.893374,-0.902375,-0.903584,-0.898322,-0.901962,-0.904318,-0.896222,-0.903300,-0.905546,-0.909183,-0.899731,-0.886897
-0.894683,-0.909919,-0.892846,-0.912463,-0.916422,-0.903643,-0.911370,-0.910988,-0.888256,-0.913068,-0.917702,-0.910919,-0.907570,-0.912580,-0.902866,-0.901535,-0.881435,-0.910189,-0.909064,-0.909693,-0.909585,-0.912828,-0.915821,-0.908927,-0.914144,-0.915878,-0.909218,-0.914919,-0.911302,-0.917131,-0.912039,-0.896678
-0.901255,-0.911317,-0.899025,-0.912185,-0.916466,-0.897015,-0.911916,-0.909220,-0.882243,-0.910715,-0.919120,-0.912685,-0.910227,-0.913710,-0.905400,-0.904812,-0.885715,-0.906944,-0.912001,-0.914603,-0.908184,-0.912446,-0.915213,-0.910259,-0.911803,-0.916258,-0.903880,-0.916144,-0.913566,-0.920377,-0.914114,-0.904885
-0.902640,-0.915118,-0.896546,-0.916720,-0.920921,-0.901221,-0.914780,-0.913090,-0.886849,-0.916198,-0.920441,-0.918178,-0.915510,-0.919592,-0.913356,-0.905034,-0.882231,-0.902293,-0.906445,-0.914838,-0.908841,-0.906077,-0.911254,-0.908045,-0.916733,-0.920241,-0.914276,-0.919132,-0.918490,-0.921707,-0.916594,-0.905459
-0.900765,-0.917531,-0.889151,-0.918235,-0.920941,-0.908879,-0.917526,-0.918593,-0.893684,-0.919455,-0.919672,-0.919502,-0.919247,-0.919484,-0.914181,-0.904826,-0.886036,-0.912993,-0.911100,-0.919785,-0.914545,-0.920765,-0.918034,-0.913347,-0.919541,-0.920601,-0.915387,-0.919006,-0.918311,-0.920481,-0.916970,-0.902107
-0.903663,-0.915077,-0.896559,-0.917900,-0.913944,-0.911650,-0.916863,-0.919752,-0.892297,-0.915486,-0.919277,-0.914755,-0.917466,-0.912538,-0.911409,-0.903623,-0.880650,-0.906821,-0.912097,-0.915664,-0.916922,-0.920652,-0.921005,-0.916579,-0.920586,-0.920027,-0.916125,-0.921768,-0.917119,-0.919380,-0.918494,-0.900512
-0.897343,-0.906540,-0.898420,-0.911421,-0.904541,-0.897762,-0.907097,-0.907209,-0.895705,-0.913868,-0.912732,-0.912147,-0.910634,-0.914250,-0.908228,-0.907045,-0.887216,-0.906188,-0.901401,-0.914031,-0.908551,-0.913235,-0.912239,-0.904431,-0.905261,-0.907323,-0.908868,-0.913279,-0.912914,-0.915251,-0.906501,-0.896689
-0.920030,-0.935172,-0.914831,-0.930817,-0.935011,-0.926668,-0.928385,-0.932476,-0.910653,-0.932689,-0.934106,-0.934636,-0.933637,-0.933320,-0.928936,-0.926746,-0.902097,-0.925022,-0.925648,-0.930773,-0.931992,-0.931722,-0.930145,-0.930020,-0.935364,-0.932148,-0.929814,-0.932988,-0.930431,-0.938380,-0.931457,-0.924400
-0.920601,-0.934120,-0.915752,-0.933505,-0.934630,-0.926351,-0.922576,-0.931214,-0.904551,-0.931646,-0.931952,-0.927260,-0.929851,-0.932043,-0.928959,-0.926171,-0.903841,-0.926449,-0.925407,-0.928438,-0.927665,-0.931066,-0.929923,-0.930895,-0.940888,-0.929336,-0.925832,-0.933538,-0.925353,-0.933242,-0.932737,-0.925483
-0.914222,-0.921901,-0.912290,-0.925358,-0.931354,-0.914362,-0.922127,-0.930711,-0.912213,-0.932537,-0.921645,-0.922114,-0.928660,-0.930273,-0.925908,-0.927026,-0.905387,-0.918480,-0.921213,-0.923634,-0.919936,-0.922863,-0.916228,-0.924237,-0.940669,-0.931165,-0.927170,-0.921468,-0.928765,-0.929606,-0.924933,-0.912230
-0.920755,-0.931935,-0.910600,-0.934255,-0.936061,-0.923272,-0.932244,-0.932703,-0.903245,-0.930738,-0.931081,-0.932089,-0.934992,-0.931798,-0.933434,-0.930247,-0.900493,-0.920947,-0.926588,-0.928273,-0.923649,-0.928886,-0.925300,-0.927499,-0.942549,-0.936320,-0.926366,-0.933714,-0.931992,-0.937909,-0.935149,-0.925329
-0.875914,-0.890063,-0.879296,-0.891965,-0.894577,-0.893621,-0.896339,-0.889518,-0.894554,-0.909181,-0.900273,-0.901595,-0.897379,-0.891647,-0.884183,-0.888283,-0.854891,-0.892915,-0.884735,-0.891115,-0.896532,-0.895491,-0.878431,-0.895276,-0.908494,-0.898770,-0.904998,-0.886110,-0.893684,-0.903551,-0.895430,-0.883183
-0.911986,-0.928245,-0.905524,-0.924534,-0.928597,-0.921283,-0.925413,-0.925483,-0.916865,-0.932758,-0.929681,-0.927463,-0.931188,-0.927168,-0.926611,-0.919547,-0.897990,-0.922003,-0.921064,-0.928168,-0.924431,-0.926998,-0.918699,-0.928300,-0.937721,-0.930975,-0.928429,-0.926641,-0.926116,-0.930012,-0.927134,-0.917435
-0.913500,-0.925203,-0.904207,-0.926862,-0.927778,-0.921118,-0.925702,-0.926723,-0.916638,-0.933229,-0.928411,-0.927808,-0.929658,-0.926767,-0.927420,-0.923961,-0.898807,-0.921487,-0.921535,-0.928631,-0.925089,-0.927565,-0.918236,-0.927232,-0.937665,-0.930365,-0.927736,-0.925072,-0.928154,-0.932914,-0.928368,-0.916435
-0.913180,-0.924680,-0.905262,-0.925806,-0.926349,-0.920003,-0.924244,-0.924966,-0.912606,-0.933686,-0.927762,-0.922985,-0.929788,-0.926568,-0.926850,-0.925694,-0.899971,-0.920676,-0.921246,-0.928371,-0.924248,-0.927586,-0.915456,-0.926611,-0.937835,-0.930718,-0.928732,-0.924988,-0.928799,-0.931095,-0.924665,-0.911581
-0.912331,-0.926991,-0.905006,-0.926041,-0.928372,-0.921685,-0.925035,-0.925425,-0.907411,-0.934123,-0.928336,-0.926906,-0.930425,-0.928340,-0.928999,-0.926649,-0.899895,-0.922871,-0.922681,-0.930205,-0.925663,-0.929045,-0.921687,-0.928561,-0.938637,-0.929276,-0.928543,-0.924542,-0.928469,-0.931701,-0.927886,-0.918734
-0.914229,-0.923593,-0.906138,-0.923208,-0.929810,-0.922845,-0.927154,-0.928371,-0.918126,-0.932938,-0.930730,-0.930913,-0.932835,-0.930985,-0.932419,-0.930175,-0.904509,-0.926378,-0.926185,-0.931673,-0.929182,-0.931276,-0.924612,-0.930915,-0.938864,-0.930543,-0.930263,-0.925580,-0.930976,-0.935392,-0.931618,-0.923838
-0.915525,-0.929002,-0.910082,-0.925905,-0.932454,-0.929124,-0.927523,-0.927886,-0.919625,-0.938591,-0.931984,-0.931356,-0.935325,-0.932212,-0.932339,-0.923181,-0.904888,-0.925671,-0.924897,-0.933954,-0.929002,-0.930961,-0.923336,-0.928503,-0.940996,-0.930574,-0.927817,-0.925267,-0.931175,-0.936235,-0.931808,-0.912112
-0.911188,-0.925099,-0.901046,-0.923524,-0.925356,-0.925339,-0.927223,-0.927421,-0.916903,-0.936556,-0.923618,-0.929852,-0.934536,-0.921460,-0.920940,-0.919713,-0.898886,-0.919255,-0.917928,-0.924772,-0.928668,-0.928647,-0.925114,-0.932371,-0.937706,-0.929479,-0.929644,-0.927165,-0.926804,-0.932803,-0.925314,-0.916061
-0.914766,-0.928875,-0.902918,-0.930973,-0.930909,-0.932655,-0.934405,-0.930467,-0.917957,-0.933985,-0.936720,-0.935804,-0.938967,-0.935495,-0.932137,-0.920467,-0.902396,-0.923697,-0.928251,-0.929248,-0.928003,-0.928273,-0.922949,-0.934135,-0.939248,-0.937352,-0.928356,-0.930514,-0.936182,-0.940192,-0.932221,-0.919748
-0.929949,-0.943172,-0.923395,-0.939838,-0.940749,-0.943460,-0.942935,-0.934927,-0.929882,-0.949035,-0.948498,-0.948593,-0.950030,-0.944534,-0.946355,-0.942127,-0.917916,-0.938596,-0.939421,-0.950686,-0.938923,-0.946850,-0.934108,-0.945221,-0.952056,-0.943668,-0.933576,-0.939333,-0.947379,-0.952871,-0.947583,-0.935936
-0.919366,-0.930674,-0.913341,-0.926198,-0.930522,-0.931682,-0.928902,-0.931222,-0.909304,-0.933637,-0.935860,-0.937225,-0.929392,-0.935551,-0.934989,-0.928343,-0.902999,-0.923408,-0.926441,-0.937648,-0.931380,-0.924267,-0.923950,-0.936806,-0.930573,-0.929459,-0.923812,-0.918139,-0.934900,-0.940362,-0.935182,-0.927928
-0.904119,-0.926742,-0.908352,-0.925013,-0.918706,-0.927783,-0.925000,-0.925846,-0.915228,-0.930792,-0.928749,-0.926947,-0.929027,-0.926705,-0.928632,-0.912823,-0.893955,-0.915941,-0.922094,-0.928681,-0.920008,-0.925335,-0.922256,-0.923633,-0.933064,-0.905009,-0.919534,-0.923080,-0.922930,-0.933767,-0.922574,-0.917170
-0.913605,-0.912768,-0.902417,-0.921970,-0.920728,-0.928548,-0.923171,-0.928490,-0.902431,-0.922939,-0.923894,-0.924424,-0.926431,-0.922044,-0.921423,-0.921802,-0.911954,-0.926516,-0.921271,-0.928883,-0.927104,-0.929357,-0.922612,-0.928146,-0.924304,-0.927044,-0.918389,-0.921639,-0.927926,-0.932369,-0.919238,-0.912189
-0.919236,-0.930487,-0.913229,-0.930993,-0.927026,-0.934523,-0.932619,-0.930167,-0.920338,-0.939594,-0.937168,-0.938160,-0.937828,-0.936156,-0.936688,-0.927821,-0.912778,-0.929423,-0.928714,-0.937879,-0.930096,-0.935365,-0.930030,-0.935095,-0.939421,-0.922831,-0.928249,-0.929652,-0.933233,-0.937741,-0.932642,-0.919195
-0.911309,-0.921055,-0.913782,-0.927528,-0.925583,-0.933200,-0.928774,-0.925044,-0.922863,-0.936127,-0.925706,-0.935753,-0.932997,-0.928079,-0.926455,-0.911842,-0.896016,-0.909909,-0.918356,-0.932795,-0.925722,-0.927768,-0.927454,-0.927230,-0.937508,-0.910847,-0.926843,-0.917541,-0.926092,-0.933711,-0.926167,-0.910811
-0.913508,-0.925392,-0.909871,-0.929162,-0.926848,-0.929724,-0.927555,-0.931079,-0.921816,-0.938047,-0.935897,-0.936976,-0.938331,-0.933794,-0.934674,-0.926087,-0.900559,-0.922536,-0.922476,-0.934125,-0.930134,-0.934957,-0.926239,-0.931674,-0.939156,-0.918185,-0.927382,-0.929911,-0.931134,-0.938672,-0.932162,-0.918758
-0.916322,-0.928242,-0.915129,-0.931649,-0.928989,-0.937339,-0.933001,-0.933696,-0.922032,-0.939397,-0.936221,-0.937795,-0.937405,-0.935952,-0.937603,-0.925450,-0.904688,-0.929950,-0.929222,-0.939377,-0.932564,-0.936177,-0.933168,-0.936953,-0.942926,-0.918746,-0.930876,-0.929516,-0.932366,-0.939521,-0.932786,-0.921869
-0.915166,-0.923368,-0.914519,-0.927873,-0.927720,-0.931199,-0.931328,-0.932509,-0.912421,-0.935513,-0.932851,-0.934612,-0.935313,-0.928670,-0.935780,-0.925898,-0.901185,-0.928184,-0.928980,-0.935074,-0.930115,-0.934264,-0.924526,-0.937213,-0.937809,-0.918804,-0.930898,-0.932043,-0.931453,-0.936955,-0.928391,-0.920440
-0.911003,-0.923977,-0.911905,-0.928257,-0.923262,-0.933470,-0.928080,-0.929649,-0.919273,-0.934319,-0.933823,-0.936136,-0.935299,-0.929577,-0.931110,-0.920449,-0.899517,-0.924839,-0.925067,-0.928859,-0.928287,-0.933809,-0.921881,-0.932672,-0.938865,-0.916111,-0.926958,-0.928105,-0.930931,-0.935891,-0.927739,-0.918991
-0.910659,-0.921565,-0.907726,-0.923107,-0.921972,-0.927983,-0.925514,-0.925731,-0.907895,-0.930101,-0.927309,-0.932939,-0.931725,-0.927760,-0.932193,-0.918713,-0.899472,-0.923251,-0.920399,-0.933040,-0.920982,-0.925574,-0.923061,-0.930697,-0.936496,-0.912704,-0.924091,-0.924057,-0.928028,-0.931966,-0.927544,-0.916694
-0.899828,-0.909749,-0.906283,-0.916968,-0.910689,-0.917768,-0.917982,-0.922314,-0.910556,-0.924504,-0.921659,-0.920669,-0.924092,-0.919977,-0.925358,-0.912002,-0.891910,-0.904315,-0.913782,-0.916152,-0.914092,-0.910827,-0.915022,-0.927858,-0.926722,-0.907805,-0.922502,-0.905589,-0.917270,-0.920718,-0.917554,-0.904050
-0.899686,-0.911004,-0.898803,-0.913901,-0.911620,-0.924835,-0.913913,-0.917591,-0.891319,-0.917094,-0.923811,-0.921787,-0.918411,-0.915305,-0.921880,-0.905858,-0.890265,-0.910252,-0.908119,-0.916060,-0.909530,-0.917522,-0.913339,-0.919171,-0.923835,-0.907016,-0.914116,-0.914783,-0.915050,-0.919826,-0.920131,-0.910672
-0.899577,-0.907606,-0.891749,-0.914314,-0.911736,-0.911942,-0.911876,-0.915330,-0.897033,-0.921423,-0.919317,-0.918735,-0.921756,-0.915103,-0.920900,-0.906689,-0.886665,-0.903250,-0.907457,-0.918472,-0.905231,-0.911946,-0.910284,-0.912570,-0.923582,-0.905786,-0.912521,-0.913771,-0.916974,-0.919602,-0.917177,-0.902438
-0.896691,-0.908391,-0.900475,-0.915163,-0.915818,-0.918490,-0.914780,-0.918004,-0.904559,-0.923116,-0.923311,-0.926612,-0.922299,-0.917559,-0.919791,-0.906290,-0.887938,-0.908151,-0.915502,-0.921033,-0.911401,-0.919366,-0.913165,-0.919582,-0.927821,-0.907119,-0.919789,-0.915134,-0.920591,-0.925081,-0.914570,-0.907356
-0.899705,-0.907225,-0.893164,-0.907950,-0.910642,-0.911876,-0.908298,-0.907665,-0.907917,-0.919407,-0.920250,-0.918707,-0.918855,-0.913512,-0.917167,-0.900314,-0.885528,-0.904388,-0.907122,-0.916733,-0.902810,-0.915322,-0.903062,-0.914938,-0.924014,-0.903763,-0.914098,-0.911335,-0.913666,-0.913175,-0.912421,-0.906734
-0.900424,-0.915329,-0.901533,-0.920015,-0.915132,-0.920295,-0.912622,-0.915705,-0.916321,-0.926440,-0.923232,-0.928211,-0.918396,-0.926524,-0.924637,-0.909835,-0.893629,-0.913254,-0.919284,-0.920309,-0.911974,-0.919317,-0.909093,-0.916951,-0.927353,-0.904422,-0.913297,-0.916713,-0.919194,-0.916567,-0.915208,-0.899751
-0.856525,-0.839250,-0.845685,-0.852996,-0.853553,-0.848777,-0.859503,-0.849203,-0.864063,-0.864546,-0.856365,-0.857564,-0.856291,-0.858725,-0.858023,-0.850069,-0.832515,-0.850301,-0.837336,-0.845895,-0.852754,-0.849585,-0.852929,-0.861677,-0.860126,-0.848478,-0.861302,-0.845928,-0.848664,-0.842633,-0.852740,-0.843776
-0.882788,-0.892190,-0.891099,-0.888603,-0.895572,-0.890403,-0.896473,-0.890696,-0.882442,-0.893604,-0.892719,-0.904480,-0.895719,-0.892962,-0.898691,-0.888862,-0.867633,-0.890381,-0.891559,-0.895616,-0.899241,-0.896475,-0.893487,-0.892837,-0.899739,-0.885445,-0.901150,-0.894183,-0.892731,-0.900070,-0.898297,-0.894756
-0.890608,-0.899972,-0.879948,-0.900254,-0.895248,-0.902231,-0.895161,-0.885286,-0.901726,-0.904149,-0.912419,-0.904467,-0.908160,-0.895265,-0.906972,-0.888311,-0.868375,-0.899567,-0.892376,-0.901580,-0.898508,-0.903763,-0.895572,-0.901922,-0.909102,-0.904246,-0.903066,-0.903541,-0.899555,-0.899929,-0.903280,-0.886867
-0.903138,-0.907456,-0.912806,-0.915667,-0.911731,-0.911541,-0.912074,-0.913890,-0.904231,-0.919306,-0.921707,-0.922123,-0.917697,-0.915996,-0.918748,-0.906423,-0.886767,-0.903194,-0.906061,-0.915931,-0.909131,-0.915799,-0.914091,-0.917751,-0.915676,-0.900775,-0.914047,-0.910948,-0.915120,-0.915694,-0.915337,-0.903708
-0.901610,-0.908209,-0.906490,-0.915226,-0.907964,-0.913508,-0.908691,-0.905778,-0.903260,-0.916168,-0.918720,-0.919973,-0.914204,-0.914588,-0.913006,-0.900018,-0.881827,-0.900822,-0.908569,-0.919419,-0.910421,-0.914776,-0.913915,-0.914709,-0.912283,-0.900040,-0.914306,-0.908259,-0.912506,-0.914503,-0.916421,-0.900699
-0.898798,-0.906975,-0.908057,-0.912554,-0.907519,-0.910082,-0.908756,-0.907633,-0.903074,-0.916441,-0.913101,-0.917442,-0.914934,-0.910919,-0.912231,-0.901309,-0.876900,-0.900231,-0.908354,-0.914422,-0.908829,-0.911402,-0.910351,-0.914924,-0.911966,-0.899153,-0.913050,-0.905596,-0.913342,-0.913398,-0.912979,-0.904015
-0.895407,-0.903895,-0.903061,-0.901596,-0.898999,-0.900175,-0.898910,-0.898539,-0.897810,-0.909311,-0.908086,-0.913427,-0.905720,-0.906583,-0.910097,-0.895522,-0.878726,-0.893912,-0.897854,-0.905941,-0.901684,-0.906271,-0.901743,-0.903541,-0.902207,-0.888468,-0.900793,-0.901063,-0.903097,-0.905060,-0.901162,-0.894024
-0.896962,-0.903679,-0.906982,-0.902995,-0.905868,-0.905974,-0.903687,-0.903832,-0.902350,-0.914299,-0.915475,-0.917376,-0.911207,-0.910145,-0.914355,-0.899484,-0.873207,-0.898604,-0.905798,-0.911785,-0.905448,-0.912020,-0.901262,-0.909653,-0.911642,-0.895541,-0.910011,-0.904866,-0.910616,-0.911327,-0.913040,-0.902978
-0.896874,-0.906255,-0.906829,-0.911821,-0.908222,-0.908064,-0.908345,-0.905991,-0.902945,-0.915247,-0.915179,-0.920352,-0.914616,-0.912578,-0.912598,-0.898465,-0.873969,-0.898295,-0.905268,-0.912409,-0.906754,-0.912237,-0.908199,-0.913089,-0.911718,-0.899319,-0.912593,-0.907983,-0.913704,-0.914474,-0.913891,-0.907782
-0.893166,-0.907031,-0.909060,-0.909106,-0.908886,-0.907450,-0.908427,-0.907009,-0.895578,-0.912147,-0.914321,-0.915916,-0.911198,-0.909382,-0.914516,-0.903597,-0.873611,-0.898125,-0.905475,-0.911933,-0.906317,-0.912037,-0.907402,-0.910304,-0.908061,-0.899644,-0.909133,-0.906627,-0.911764,-0.913820,-0.913434,-0.905285
-0.892133,-0.902369,-0.906601,-0.903533,-0.902178,-0.907837,-0.900004,-0.903814,-0.889075,-0.908142,-0.908243,-0.912910,-0.907339,-0.909287,-0.911831,-0.901155,-0.870055,-0.892172,-0.900854,-0.905835,-0.902593,-0.907806,-0.903773,-0.906508,-0.905225,-0.888027,-0.899661,-0.899359,-0.909002,-0.909645,-0.907994,-0.904642
-0.876247,-0.891116,-0.893772,-0.898712,-0.899834,-0.900210,-0.897499,-0.893850,-0.868952,-0.895181,-0.903185,-0.903858,-0.904294,-0.900640,-0.907148,-0.898338,-0.868032,-0.894280,-0.890986,-0.890287,-0.887176,-0.900622,-0.894983,-0.901618,-0.902762,-0.893709,-0.908806,-0.900473,-0.905251,-0.896567,-0.904385,-0.897520
-0.899226,-0.902565,-0.905172,-0.913205,-0.912279,-0.909260,-0.908280,-0.905199,-0.897204,-0.916192,-0.916940,-0.921477,-0.914226,-0.914563,-0.915395,-0.904342,-0.875131,-0.895256,-0.901885,-0.908674,-0.908923,-0.908270,-0.901186,-0.915537,-0.907835,-0.910695,-0.920305,-0.913560,-0.913442,-0.914557,-0.913281,-0.903977
-0.893138,-0.904823,-0.905830,-0.909848,-0.916492,-0.911144,-0.905758,-0.901244,-0.886611,-0.911935,-0.917889,-0.919601,-0.908597,-0.908517,-0.903084,-0.887402,-0.877891,-0.899564,-0.906281,-0.911101,-0.908873,-0.911672,-0.901860,-0.914079,-0.910258,-0.909457,-0.921092,-0.914341,-0.915737,-0.914171,-0.906711,-0.898534
-0.885967,-0.899122,-0.909036,-0.907873,-0.910529,-0.907177,-0.904319,-0.907661,-0.893855,-0.910106,-0.917023,-0.921397,-0.911835,-0.906317,-0.907166,-0.898466,-0.878348,-0.898171,-0.902184,-0.908680,-0.906692,-0.908753,-0.903807,-0.910830,-0.902744,-0.907573,-0.917573,-0.909805,-0.916438,-0.912098,-0.910366,-0.900935
-0.880969,-0.889580,-0.886495,-0.902630,-0.908463,-0.899092,-0.900647,-0.901056,-0.890376,-0.906535,-0.910170,-0.913557,-0.905840,-0.897718,-0.906882,-0.892020,-0.862550,-0.888010,-0.897234,-0.898728,-0.899915,-0.900779,-0.893166,-0.905256,-0.906064,-0.899745,-0.915040,-0.910344,-0.910350,-0.908724,-0.905013,-0.886078
-0.896569,-0.896935,-0.902519,-0.906661,-0.907603,-0.901350,-0.905610,-0.901300,-0.896771,-0.911910,-0.909636,-0.917442,-0.907778,-0.905671,-0.911015,-0.900228,-0.867637,-0.890720,-0.895769,-0.906480,-0.905115,-0.905937,-0.898853,-0.909758,-0.906526,-0.906572,-0.917049,-0.907443,-0.912291,-0.912008,-0.906399,-0.896948
-0.895640,-0.898901,-0.903994,-0.905942,-0.911272,-0.907792,-0.901949,-0.904244,-0.899089,-0.913383,-0.910752,-0.915155,-0.910455,-0.909124,-0.914133,-0.903371,-0.886790,-0.900004,-0.901807,-0.906613,-0.906905,-0.906062,-0.896375,-0.907241,-0.907135,-0.900333,-0.913739,-0.910434,-0.914281,-0.909786,-0.910940,-0.899744
-0.892972,-0.896422,-0.898769,-0.896465,-0.904865,-0.897892,-0.901215,-0.903113,-0.891449,-0.909473,-0.914064,-0.912669,-0.909363,-0.907610,-0.910561,-0.900063,-0.877272,-0.887426,-0.895688,-0.903643,-0.892989,-0.901090,-0.897050,-0.904456,-0.907773,-0.903086,-0.912726,-0.908025,-0.909403,-0.908523,-0.904963,-0.897966
-0.893715,-0.894925,-0.901029,-0.901121,-0.908116,-0.907952,-0.901454,-0.902123,-0.898107,-0.911287,-0.916813,-0.914185,-0.909108,-0.907536,-0.908866,-0.894013,-0.874690,-0.894753,-0.898097,-0.899428,-0.901425,-0.900937,-0.896772,-0.897583,-0.905780,-0.900687,-0.906437,-0.904834,-0.913233,-0.902546,-0.906954,-0.894750
-0.883176,-0.884335,-0.888528,-0.881848,-0.881082,-0.880245,-0.887914,-0.889842,-0.875320,-0.891015,-0.893493,-0.895846,-0.884910,-0.879861,-0.874003,-0.859822,-0.869064,-0.887383,-0.882505,-0.881152,-0.880644,-0.882556,-0.877174,-0.883284,-0.889299,-0.896589,-0.901423,-0.885904,-0.888415,-0.880902,-0.879057,-0.872692
-0.879352,-0.882471,-0.882291,-0.888330,-0.891504,-0.889552,-0.891584,-0.890078,-0.884985,-0.899023,-0.900101,-0.901676,-0.895153,-0.887670,-0.885095,-0.877898,-0.857271,-0.885133,-0.886792,-0.889444,-0.888840,-0.891994,-0.879858,-0.889483,-0.894216,-0.885527,-0.900546,-0.895421,-0.899205,-0.895339,-0.894428,-0.884935
-0.870747,-0.878014,-0.882107,-0.883165,-0.885842,-0.884587,-0.885144,-0.886089,-0.876564,-0.892366,-0.894136,-0.894876,-0.889144,-0.888175,-0.884728,-0.871540,-0.855131,-0.877737,-0.873323,-0.880306,-0.878887,-0.883943,-0.878280,-0.885065,-0.884694,-0.888514,-0.895598,-0.889459,-0.891043,-0.889643,-0.890739,-0.881935
-0.868625,-0.869957,-0.876859,-0.878539,-0.880694,-0.879998,-0.884187,-0.886243,-0.859498,-0.878570,-0.875342,-0.888191,-0.882326,-0.877589,-0.877004,-0.872024,-0.854797,-0.875095,-0.873448,-0.874809,-0.879067,-0.877762,-0.874852,-0.876685,-0.880573,-0.887269,-0.886955,-0.890240,-0.883197,-0.882996,-0.879582,-0.875277
-0.867020,-0.865921,-0.873626,-0.873554,-0.877985,-0.875729,-0.879238,-0.874012,-0.868013,-0.881327,-0.881006,-0.882411,-0.882339,-0.873995,-0.869750,-0.857101,-0.856980,-0.879186,-0.874075,-0.877279,-0.878018,-0.878746,-0.869997,-0.872265,-0.883738,-0.884028,-0.887985,-0.875506,-0.879710,-0.880848,-0.882060,-0.873494
-0.865605,-0.873465,-0.877465,-0.880558,-0.884004,-0.881038,-0.886328,-0.880802,-0.859671,-0.881909,-0.887230,-0.890720,-0.883444,-0.876195,-0.875864,-0.862890,-0.860213,-0.879423,-0.875397,-0.880152,-0.881670,-0.881469,-0.877680,-0.882552,-0.885664,-0.880880,-0.893592,-0.886365,-0.886516,-0.885026,-0.884933,-0.877665
-0.873897,-0.876477,-0.878443,-0.881967,-0.884781,-0.878911,-0.886271,-0.883260,-0.876001,-0.889163,-0.888938,-0.891775,-0.889225,-0.883574,-0.880494,-0.869524,-0.864146,-0.885884,-0.879884,-0.883621,-0.883204,-0.886314,-0.879228,-0.884376,-0.887390,-0.886331,-0.893615,-0.888920,-0.889455,-0.889085,-0.888377,-0.879941
-0.850969,-0.861284,-0.855738,-0.859424,-0.867072,-0.862138,-0.868687,-0.870413,-0.865362,-0.873313,-0.877429,-0.874445,-0.874555,-0.867160,-0.862524,-0.856797,-0.848963,-0.866085,-0.857421,-0.866406,-0.863117,-0.871136,-0.862851,-0.868149,-0.873752,-0.867014,-0.874684,-0.873968,-0.875135,-0.868124,-0.872516,-0.865570
-0.849881,-0.841005,-0.834701,-0.838326,-0.842925,-0.850155,-0.842602,-0.849703,-0.834453,-0.849942,-0.843103,-0.848437,-0.850622,-0.841870,-0.840073,-0.833538,-0.814730,-0.850519,-0.836339,-0.843711,-0.846396,-0.843509,-0.840965,-0.840785,-0.845669,-0.858061,-0.852808,-0.853284,-0.841114,-0.844673,-0.848051,-0.842155
-0.863017,-0.864760,-0.872952,-0.870362,-0.874766,-0.867051,-0.875824,-0.870445,-0.836248,-0.865379,-0.869402,-0.872980,-0.868771,-0.864978,-0.859542,-0.846906,-0.844429,-0.864962,-0.862829,-0.864728,-0.866555,-0.871017,-0.867591,-0.866171,-0.868698,-0.869158,-0.879361,-0.872397,-0.871109,-0.874515,-0.867286,-0.854706
-0.843405,-0.853588,-0.856623,-0.854298,-0.860818,-0.852805,-0.861741,-0.866870,-0.818759,-0.854746,-0.857238,-0.863936,-0.856374,-0.841984,-0.845634,-0.831751,-0.809263,-0.849210,-0.845449,-0.849822,-0.843893,-0.856781,-0.842789,-0.846083,-0.854892,-0.854975,-0.860428,-0.856592,-0.858292,-0.855909,-0.849776,-0.837679
-0.868378,-0.871143,-0.877342,-0.877496,-0.881099,-0.877268,-0.879551,-0.877673,-0.852481,-0.876522,-0.874439,-0.884414,-0.878873,-0.870563,-0.867063,-0.853784,-0.848097,-0.874434,-0.872480,-0.878423,-0.874619,-0.874604,-0.873751,-0.874583,-0.881557,-0.878058,-0.885980,-0.877335,-0.880468,-0.881212,-0.877090,-0.863950
-0.849605,-0.863802,-0.870438,-0.872403,-0.877751,-0.874180,-0.874968,-0.875184,-0.853912,-0.876952,-0.870567,-0.879081,-0.876347,-0.871824,-0.863396,-0.850271,-0.828618,-0.869144,-0.865443,-0.870190,-0.869327,-0.871875,-0.868211,-0.867700,-0.875108,-0.874620,-0.883145,-0.875793,-0.877581,-0.876764,-0.872007,-0.858889
-0.834265,-0.839516,-0.830200,-0.842638,-0.846736,-0.847997,-0.850719,-0.849985,-0.836600,-0.861378,-0.850108,-0.863801,-0.860804,-0.849184,-0.849048,-0.841181,-0.811701,-0.839439,-0.836185,-0.835415,-0.844967,-0.849382,-0.846531,-0.855272,-0.863696,-0.853591,-0.852428,-0.851055,-0.849187,-0.846716,-0.842326,-0.804935
-0.847467,-0.849625,-0.844250,-0.848815,-0.862288,-0.856016,-0.864308,-0.868296,-0.832450,-0.861569,-0.864370,-0.871405,-0.865267,-0.858865,-0.858737,-0.849189,-0.833596,-0.847313,-0.847098,-0.857338,-0.857696,-0.864808,-0.861876,-0.861285,-0.863444,-0.863938,-0.867315,-0.870149,-0.865835,-0.866141,-0.855899,-0.819551
-0.853965,-0.860357,-0.858644,-0.865889,-0.871292,-0.866268,-0.872996,-0.871625,-0.843767,-0.869931,-0.867058,-0.875540,-0.872159,-0.863177,-0.859236,-0.848035,-0.836736,-0.859461,-0.861581,-0.868583,-0.865909,-0.868328,-0.869312,-0.866683,-0.874286,-0.868479,-0.872998,-0.868492,-0.872876,-0.872078,-0.865430,-0.839664
-0.832661,-0.853938,-0.824863,-0.857236,-0.854419,-0.853319,-0.864402,-0.860941,-0.837962,-0.863207,-0.862331,-0.864913,-0.862242,-0.848538,-0.825196,-0.813888,-0.813230,-0.848376,-0.845704,-0.856601,-0.852969,-0.859885,-0.863950,-0.859224,-0.864297,-0.852375,-0.852433,-0.861420,-0.856701,-0.858639,-0.847196,-0.807564
-0.819766,-0.856742,-0.831582,-0.857594,-0.863300,-0.859120,-0.869552,-0.866890,-0.840937,-0.863596,-0.864102,-0.865432,-0.865589,-0.851781,-0.839636,-0.823324,-0.816287,-0.848518,-0.851923,-0.861446,-0.860929,-0.861057,-0.867065,-0.864157,-0.862963,-0.864061,-0.860998,-0.864132,-0.863874,-0.863837,-0.855162,-0.820573
-0.827085,-0.843353,-0.826911,-0.849595,-0.853712,-0.848559,-0.855804,-0.857806,-0.831326,-0.855855,-0.850992,-0.852662,-0.849015,-0.837470,-0.813583,-0.789863,-0.806783,-0.838546,-0.841193,-0.851242,-0.852335,-0.852347,-0.855979,-0.855637,-0.856721,-0.854653,-0.853117,-0.853591,-0.849524,-0.848843,-0.817884,-0.757625
-0.816315,-0.844305,-0.819930,-0.841806,-0.846326,-0.843142,-0.854052,-0.855734,-0.825947,-0.852600,-0.849803,-0.851035,-0.850123,-0.839803,-0.818980,-0.788972,-0.806414,-0.837771,-0.840217,-0.851311,-0.846520,-0.851809,-0.856048,-0.855743,-0.850623,-0.858273,-0.845199,-0.855753,-0.852747,-0.852631,-0.837474,-0.788327
-0.802786,-0.833130,-0.821430,-0.835460,-0.841275,-0.838879,-0.848215,-0.849620,-0.836808,-0.852320,-0.842506,-0.844163,-0.845012,-0.830319,-0.811180,-0.784710,-0.794777,-0.828211,-0.833384,-0.843110,-0.845786,-0.842243,-0.850616,-0.848429,-0.850347,-0.850940,-0.845252,-0.847501,-0.842765,-0.838280,-0.825081,-0.785321
-0.795754,-0.830087,-0.809792,-0.834725,-0.837349,-0.831139,-0.840889,-0.842311,-0.827695,-0.844912,-0.834614,-0.840110,-0.839256,-0.827051,-0.807010,-0.778165,-0.792999,-0.826060,-0.828568,-0.835868,-0.839606,-0.837780,-0.841462,-0.839739,-0.841900,-0.847346,-0.838361,-0.841197,-0.837811,-0.837306,-0.823183,-0.778899
-0.805530,-0.830923,-0.813773,-0.836838,-0.837454,-0.835099,-0.840738,-0.842676,-0.831582,-0.846447,-0.838229,-0.840206,-0.839600,-0.829093,-0.812805,-0.787315,-0.795202,-0.826082,-0.829184,-0.841560,-0.839848,-0.835433,-0.844006,-0.841072,-0.845786,-0.849034,-0.839161,-0.839462,-0.841760,-0.839756,-0.824828,-0.784268
-0.799552,-0.827938,-0.805267,-0.831936,-0.835905,-0.835770,-0.842766,-0.842759,-0.822225,-0.841608,-0.838023,-0.839900,-0.837391,-0.823691,-0.804309,-0.775027,-0.783440,-0.819410,-0.826617,-0.835081,-0.837035,-0.837090,-0.841004,-0.841296,-0.841553,-0.846239,-0.838328,-0.838496,-0.839407,-0.834875,-0.817284,-0.758228
-0.732028,-0.773236,-0.786956,-0.778422,-0.786336,-0.791713,-0.786270,-0.799725,-0.785320,-0.790866,-0.784744,-0.792025,-0.781732,-0.764066,-0.733182,-0.702493,-0.726908,-0.774592,-0.777713,-0.777454,-0.795300,-0.787211,-0.800655,-0.796064,-0.799078,-0.798368,-0.792147,-0.795066,-0.787216,-0.782722,-0.756600,-0.696404
-0.743699,-0.785511,-0.777470,-0.789708,-0.792546,-0.786931,-0.797421,-0.792462,-0.784596,-0.798297,-0.791619,-0.792979,-0.788780,-0.770078,-0.740530,-0.697469,-0.735060,-0.782366,-0.788110,-0.786963,-0.801165,-0.796587,-0.808098,-0.804752,-0.806949,-0.809891,-0.804813,-0.803660,-0.802339,-0.791056,-0.768297,-0.713553
-0.765609,-0.808941,-0.800434,-0.812280,-0.816019,-0.816490,-0.816738,-0.821039,-0.801826,-0.820772,-0.813643,-0.821427,-0.810535,-0.799241,-0.766297,-0.720710,-0.753324,-0.806691,-0.806943,-0.817729,-0.824460,-0.819115,-0.824883,-0.823715,-0.824079,-0.827909,-0.821691,-0.820238,-0.816175,-0.812891,-0.790851,-0.745310
-0.753229,-0.788385,-0.784945,-0.795343,-0.794604,-0.800971,-0.802238,-0.802126,-0.798168,-0.807387,-0.793218,-0.802797,-0.798197,-0.780647,-0.740925,-0.702880,-0.746038,-0.794694,-0.794720,-0.795762,-0.807144,-0.798057,-0.803774,-0.806240,-0.808481,-0.810593,-0.806917,-0.799309,-0.796448,-0.793995,-0.779609,-0.736045
-0.769477,-0.813772,-0.792606,-0.813200,-0.819669,-0.817183,-0.819695,-0.822084,-0.813879,-0.824390,-0.817963,-0.822143,-0.814578,-0.802849,-0.770678,-0.732199,-0.755696,-0.807094,-0.809536,-0.819237,-0.824543,-0.822340,-0.827598,-0.828275,-0.829072,-0.826162,-0.821674,-0.824119,-0.819770,-0.813698,-0.795475,-0.741612
-0.750008,-0.798131,-0.795298,-0.802314,-0.811116,-0.810293,-0.811341,-0.816373,-0.813641,-0.823520,-0.814457,-0.813636,-0.811553,-0.800492,-0.769668,-0.729223,-0.736938,-0.791528,-0.795617,-0.811362,-0.818312,-0.811598,-0.820262,-0.816844,-0.819447,-0.825992,-0.813537,-0.815212,-0.812217,-0.812161,-0.793216,-0.743376
-0.767629,-0.814591,-0.801040,-0.814037,-0.817990,-0.816983,-0.816420,-0.820727,-0.810234,-0.823642,-0.815460,-0.819135,-0.812261,-0.801292,-0.773632,-0.733408,-0.755148,-0.807771,-0.810023,-0.818404,-0.824835,-0.820621,-0.826652,-0.826816,-0.824151,-0.824959,-0.820000,-0.820281,-0.818178,-0.814399,-0.794463,-0.744338
-0.761927,-0.804720,-0.795816,-0.805064,-0.803453,-0.807915,-0.807801,-0.811132,-0.798612,-0.811574,-0.802098,-0.809992,-0.804160,-0.791775,-0.764817,-0.726311,-0.750028,-0.796877,-0.796122,-0.802851,-0.814106,-0.809461,-0.816140,-0.812332,-0.812911,-0.815970,-0.809535,-0.813357,-0.805346,-0.802591,-0.783985,-0.732651
-0.762807,-0.803219,-0.790097,-0.804171,-0.806327,-0.806210,-0.811058,-0.809812,-0.803511,-0.813555,-0.793344,-0.802495,-0.799912,-0.786184,-0.760894,-0.721068,-0.744273,-0.794585,-0.800987,-0.805983,-0.808591,-0.803211,-0.813765,-0.809757,-0.807805,-0.811443,-0.801527,-0.799542,-0.801965,-0.799359,-0.777505,-0.729956
-0.750410,-0.791994,-0.773342,-0.799791,-0.799118,-0.799292,-0.799543,-0.804240,-0.794949,-0.800490,-0.793598,-0.797893,-0.790079,-0.780768,-0.759297,-0.714368,-0.739616,-0.787122,-0.794283,-0.803726,-0.810069,-0.803201,-0.805290,-0.806273,-0.809870,-0.807095,-0.798240,-0.795467,-0.797317,-0.799650,-0.780339,-0.735025
-0.754087,-0.796674,-0.789000,-0.797508,-0.798481,-0.798061,-0.803634,-0.804383,-0.803340,-0.808054,-0.800625,-0.806877,-0.800921,-0.790785,-0.767336,-0.727194,-0.743468,-0.786068,-0.794662,-0.805297,-0.814827,-0.797527,-0.812317,-0.807668,-0.811211,-0.813376,-0.806003,-0.803993,-0.804094,-0.804168,-0.782374,-0.734301
-0.758997,-0.802334,-0.787215,-0.803538,-0.806772,-0.806487,-0.808566,-0.812917,-0.806374,-0.814605,-0.800253,-0.810224,-0.803775,-0.789637,-0.745639,-0.674106,-0.741691,-0.793976,-0.798523,-0.807184,-0.813021,-0.807246,-0.814058,-0.816780,-0.818811,-0.816426,-0.806657,-0.808326,-0.803379,-0.802962,-0.771448,-0.701720
-0.749634,-0.797642,-0.792745,-0.798955,-0.802793,-0.798469,-0.801689,-0.803145,-0.791277,-0.809184,-0.794347,-0.806050,-0.793187,-0.783050,-0.738334,-0.661379,-0.733016,-0.788265,-0.793998,-0.801451,-0.807727,-0.803810,-0.812949,-0.810743,-0.813826,-0.809541,-0.805799,-0.802756,-0.800829,-0.792942,-0.763666,-0.709424
-0.758831,-0.808959,-0.796800,-0.809717,-0.811486,-0.811053,-0.814716,-0.819440,-0.819189,-0.820928,-0.810888,-0.818306,-0.810068,-0.797141,-0.760933,-0.707305,-0.752677,-0.799540,-0.805229,-0.807757,-0.820325,-0.809958,-0.818050,-0.822477,-0.826127,-0.827277,-0.818493,-0.820944,-0.816102,-0.809739,-0.779877,-0.727767
-0.760734,-0.809336,-0.799887,-0.811890,-0.812437,-0.815047,-0.816297,-0.819080,-0.816001,-0.821077,-0.809326,-0.816598,-0.810684,-0.799772,-0.761845,-0.706060,-0.754715,-0.804345,-0.809336,-0.812533,-0.824672,-0.815744,-0.824863,-0.824810,-0.823841,-0.826217,-0.817624,-0.818096,-0.814296,-0.811185,-0.784023,-0.729192
-0.757867,-0.807222,-0.800981,-0.811666,-0.810537,-0.813033,-0.812073,-0.817757,-0.808926,-0.819640,-0.807659,-0.812878,-0.808065,-0.797754,-0.757735,-0.699205,-0.750419,-0.798789,-0.807580,-0.809771,-0.820880,-0.814815,-0.821750,-0.822861,-0.820569,-0.824193,-0.817082,-0.816402,-0.809237,-0.805830,-0.779563,-0.718203
-0.746754,-0.787188,-0.769994,-0.794410,-0.788742,-0.796083,-0.790501,-0.799946,-0.805498,-0.809635,-0.792021,-0.796339,-0.798865,-0.784959,-0.744813,-0.675470,-0.735799,-0.776256,-0.787701,-0.787781,-0.802011,-0.791982,-0.804319,-0.808350,-0.805373,-0.807121,-0.798757,-0.801930,-0.794635,-0.792303,-0.763123,-0.705029
-0.729216,-0.766813,-0.786729,-0.777823,-0.784031,-0.783820,-0.787247,-0.790053,-0.800272,-0.790408,-0.776291,-0.791470,-0.780879,-0.780033,-0.744312,-0.686295,-0.696713,-0.753383,-0.770702,-0.777768,-0.791862,-0.786248,-0.793753,-0.791843,-0.795152,-0.798263,-0.798234,-0.792888,-0.783132,-0.782209,-0.761897,-0.698098
-0.744052,-0.788024,-0.784455,-0.799453,-0.798250,-0.801034,-0.802285,-0.805950,-0.799926,-0.809256,-0.798143,-0.807732,-0.795299,-0.790260,-0.751828,-0.691051,-0.724322,-0.784389,-0.795300,-0.798985,-0.809347,-0.803297,-0.811466,-0.812426,-0.809579,-0.808790,-0.808992,-0.806769,-0.803620,-0.799498,-0.774065,-0.722810
-0.711723,-0.753924,-0.760596,-0.766127,-0.768238,-0.768303,-0.771039,-0.775484,-0.770922,-0.778758,-0.767496,-0.771673,-0.758788,-0.756536,-0.720721,-0.662554,-0.701846,-0.760502,-0.765444,-0.761194,-0.779971,-0.777392,-0.779918,-0.779971,-0.776193,-0.782319,-0.783391,-0.776861,-0.771510,-0.768984,-0.736223,-0.690707
-0.692184,-0.753747,-0.757031,-0.763165,-0.764080,-0.763804,-0.766593,-0.772023,-0.749635,-0.766169,-0.761997,-0.763185,-0.756692,-0.750872,-0.709524,-0.641541,-0.684013,-0.748636,-0.759236,-0.762054,-0.776333,-0.773792,-0.777841,-0.778010,-0.774895,-0.768795,-0.767074,-0.779816,-0.764751,-0.760407,-0.736874,-0.675707
-0.743663,-0.779605,-0.786763,-0.786827,-0.788572,-0.788705,-0.791663,-0.795830,-0.795820,-0.802029,-0.783916,-0.795671,-0.784988,-0.779997,-0.741375,-0.676247,-0.718394,-0.776102,-0.782710,-0.786011,-0.797026,-0.794177,-0.794148,-0.802807,-0.800159,-0.803496,-0.800077,-0.795388,-0.790716,-0.782424,-0.747163,-0.687368
-0.751044,-0.787063,-0.783785,-0.796467,-0.796140,-0.797341,-0.799821,-0.799281,-0.793766,-0.802271,-0.794970,-0.800082,-0.788722,-0.784066,-0.745953,-0.680123,-0.721804,-0.781198,-0.789994,-0.794600,-0.804237,-0.798601,-0.800646,-0.803832,-0.802426,-0.806185,-0.804894,-0.797070,-0.797605,-0.794591,-0.759965,-0.706464
-0.743077,-0.780197,-0.787879,-0.791987,-0.789433,-0.795597,-0.795115,-0.796721,-0.780264,-0.794993,-0.790204,-0.791374,-0.779565,-0.770562,-0.699278,-0.590003,-0.706431,-0.780092,-0.788030,-0.787895,-0.795449,-0.797696,-0.798659,-0.799122,-0.801290,-0.803087,-0.801585,-0.792616,-0.793065,-0.783267,-0.731447,-0.622378
-0.741784,-0.768685,-0.766157,-0.776268,-0.780241,-0.773036,-0.776487,-0.779396,-0.783254,-0.783853,-0.779014,-0.784132,-0.773666,-0.771444,-0.731888,-0.650032,-0.717690,-0.765417,-0.778369,-0.776390,-0.785864,-0.776836,-0.783256,-0.788214,-0.786462,-0.790249,-0.790108,-0.780457,-0.784408,-0.781755,-0.757573,-0.699402
-0.722234,-0.761132,-0.773549,-0.775783,-0.783458,-0.780725,-0.784726,-0.779587,-0.771503,-0.783764,-0.781445,-0.786677,-0.768146,-0.764139,-0.707906,-0.635880,-0.700780,-0.763864,-0.773550,-0.781766,-0.788392,-0.778588,-0.793410,-0.785798,-0.789936,-0.787350,-0.789616,-0.783524,-0.777121,-0.771713,-0.739133,-0.661037
-0.742201,-0.779702,-0.777815,-0.786033,-0.789790,-0.795112,-0.795687,-0.795689,-0.781196,-0.790915,-0.784977,-0.791371,-0.775902,-0.769523,-0.716308,-0.632337,-0.713134,-0.768692,-0.782024,-0.784441,-0.791978,-0.792910,-0.792002,-0.791806,-0.792712,-0.791850,-0.797135,-0.793064,-0.780025,-0.780610,-0.744005,-0.665461
-0.697151,-0.736725,-0.752445,-0.745702,-0.745040,-0.760391,-0.744570,-0.754377,-0.717340,-0.749597,-0.744059,-0.753719,-0.732422,-0.718945,-0.670151,-0.580677,-0.654354,-0.743801,-0.746170,-0.746989,-0.756197,-0.756376,-0.755570,-0.764896,-0.768627,-0.763325,-0.767162,-0.748797,-0.752653,-0.745851,-0.697180,-0.618166
-0.681205,-0.722379,-0.734653,-0.740042,-0.741239,-0.742474,-0.742485,-0.738738,-0.743910,-0.751803,-0.755656,-0.748332,-0.740033,-0.732945,-0.682014,-0.610403,-0.659375,-0.722819,-0.737363,-0.748202,-0.745088,-0.748359,-0.759251,-0.758063,-0.753930,-0.761143,-0.755856,-0.747708,-0.751335,-0.749034,-0.722216,-0.648840
-0.713419,-0.733603,-0.746314,-0.751009,-0.745932,-0.755839,-0.764385,-0.753148,-0.762278,-0.764469,-0.762511,-0.764733,-0.755543,-0.752413,-0.713071,-0.639443,-0.680068,-0.717241,-0.735594,-0.750911,-0.757600,-0.759234,-0.760420,-0.762551,-0.765846,-0.769768,-0.764493,-0.756586,-0.761142,-0.759571,-0.727061,-0.645698
-0.721144,-0.750682,-0.760956,-0.765181,-0.771285,-0.770685,-0.774706,-0.769953,-0.773380,-0.779535,-0.781627,-0.780186,-0.771205,-0.767578,-0.725737,-0.659379,-0.707107,-0.747225,-0.761963,-0.769549,-0.774556,-0.775742,-0.778017,-0.780673,-0.782076,-0.783017,-0.781074,-0.775468,-0.776751,-0.772515,-0.743706,-0.664816
-0.711201,-0.747975,-0.758250,-0.761632,-0.768257,-0.768525,-0.771582,-0.765799,-0.772124,-0.776056,-0.777717,-0.775923,-0.766281,-0.762010,-0.716768,-0.644771,-0.696229,-0.741990,-0.757477,-0.766604,-0.771300,-0.773120,-0.773218,-0.777774,-0.777672,-0.776896,-0.777889,-0.772188,-0.771764,-0.767526,-0.734278,-0.648006
-0.702898,-0.738437,-0.750175,-0.752416,-0.759066,-0.760232,-0.765144,-0.756190,-0.763086,-0.766999,-0.771689,-0.766852,-0.755765,-0.746313,-0.694515,-0.614036,-0.689594,-0.731560,-0.748873,-0.759130,-0.765209,-0.765585,-0.763887,-0.769568,-0.769790,-0.767119,-0.770794,-0.761074,-0.759514,-0.753025,-0.712797,-0.604666
-0.709199,-0.741833,-0.752278,-0.755570,-0.763876,-0.765484,-0.765650,-0.762523,-0.769973,-0.771966,-0.773120,-0.770899,-0.758328,-0.748114,-0.686495,-0.594630,-0.690260,-0.735012,-0.750321,-0.763204,-0.763007,-0.770470,-0.770560,-0.773479,-0.776066,-0.773922,-0.779007,-0.765621,-0.765395,-0.758607,-0.718791,-0.610923
-0.701150,-0.741706,-0.752834,-0.757330,-0.764544,-0.765627,-0.769097,-0.762261,-0.770556,-0.773581,-0.775307,-0.772871,-0.759248,-0.749482,-0.686029,-0.585943,-0.687669,-0.736564,-0.753937,-0.763300,-0.768023,-0.772443,-0.772731,-0.777646,-0.776092,-0.779324,-0.778287,-0.766563,-0.766975,-0.758477,-0.713368,-0.602201
-0.701777,-0.731117,-0.748466,-0.754656,-0.759015,-0.761948,-0.764739,-0.761778,-0.764752,-0.768802,-0.773660,-0.770670,-0.755360,-0.746239,-0.683643,-0.581389,-0.679113,-0.729386,-0.745668,-0.760194,-0.759177,-0.769548,-0.768069,-0.773779,-0.771250,-0.775566,-0.775784,-0.762931,-0.763682,-0.755349,-0.708744,-0.601219
-0.677508,-0.711909,-0.721938,-0.730481,-0.732222,-0.732397,-0.739273,-0.734656,-0.738588,-0.742465,-0.745589,-0.742757,-0.728257,-0.721585,-0.649170,-0.557092,-0.652363,-0.698607,-0.724956,-0.730869,-0.742378,-0.740241,-0.743124,-0.743382,-0.745819,-0.749111,-0.745834,-0.735360,-0.728762,-0.725867,-0.677593,-0.575008
-0.679701,-0.726659,-0.740711,-0.734024,-0.744616,-0.743299,-0.746900,-0.739467,-0.753659,-0.754008,-0.748895,-0.751024,-0.737690,-0.733339,-0.679095,-0.578633,-0.676134,-0.710772,-0.734678,-0.743035,-0.749419,-0.751681,-0.751125,-0.757911,-0.757413,-0.763138,-0.758825,-0.750740,-0.744371,-0.740232,-0.706565,-0.604984
-0.704366,-0.733652,-0.739185,-0.746640,-0.752885,-0.751686,-0.757292,-0.754437,-0.756982,-0.760593,-0.760559,-0.762460,-0.750783,-0.743988,-0.682795,-0.569812,-0.683255,-0.729107,-0.748623,-0.755081,-0.758323,-0.763828,-0.760488,-0.766425,-0.767959,-0.763192,-0.766439,-0.757982,-0.758472,-0.751984,-0.713103,-0.600760
-0.706991,-0.738284,-0.746113,-0.753484,-0.762752,-0.762215,-0.763815,-0.760999,-0.761959,-0.767048,-0.768510,-0.767854,-0.754536,-0.747700,-0.690484,-0.598167,-0.685882,-0.731286,-0.750196,-0.759134,-0.764293,-0.770117,-0.766155,-0.773260,-0.772476,-0.774343,-0.772167,-0.763747,-0.760033,-0.753644,-0.714994,-0.610145
-0.706349,-0.738958,-0.752210,-0.753518,-0.762266,-0.761239,-0.761673,-0.759315,-0.764698,-0.766571,-0.767127,-0.766164,-0.753388,-0.746466,-0.690198,-0.600861,-0.683778,-0.731771,-0.748787,-0.758752,-0.764060,-0.766579,-0.761444,-0.769516,-0.769111,-0.770845,-0.770505,-0.762328,-0.757602,-0.752005,-0.714882,-0.609283
-0.702260,-0.737002,-0.749534,-0.752824,-0.761076,-0.760488,-0.760428,-0.759517,-0.763487,-0.764699,-0.766326,-0.763863,-0.752468,-0.745148,-0.688379,-0.598689,-0.674811,-0.729797,-0.747127,-0.755419,-0.763171,-0.767827,-0.766221,-0.770643,-0.769843,-0.771592,-0.769273,-0.760704,-0.757108,-0.748060,-0.710405,-0.603009
-0.698123,-0.731398,-0.744928,-0.742203,-0.756563,-0.751102,-0.757787,-0.755697,-0.756944,-0.759119,-0.762040,-0.761433,-0.746307,-0.740244,-0.683966,-0.594121,-0.672928,-0.722065,-0.742483,-0.752232,-0.755140,-0.763127,-0.759383,-0.762975,-0.765770,-0.769458,-0.767200,-0.759625,-0.753803,-0.747615,-0.706799,-0.600722
-0.694698,-0.724145,-0.739564,-0.742394,-0.756812,-0.752693,-0.753884,-0.752122,-0.759252,-0.759180,-0.760202,-0.757802,-0.745741,-0.736756,-0.676962,-0.590689,-0.674884,-0.726459,-0.742069,-0.749733,-0.753343,-0.758831,-0.760427,-0.763451,-0.764775,-0.764974,-0.761161,-0.756297,-0.749796,-0.746229,-0.707540,-0.603120
-0.694127,-0.729129,-0.747586,-0.744688,-0.756409,-0.753063,-0.754281,-0.749659,-0.763613,-0.761437,-0.759216,-0.760032,-0.748592,-0.740291,-0.684691,-0.603820,-0.664230,-0.722009,-0.744075,-0.752871,-0.756054,-0.760545,-0.757767,-0.762453,-0.765487,-0.765205,-0.766541,-0.754368,-0.754321,-0.747545,-0.712389,-0.607545
-0.712448,-0.746274,-0.758782,-0.759143,-0.767173,-0.765752,-0.766865,-0.765769,-0.775130,-0.772982,-0.771639,-0.769803,-0.758554,-0.748979,-0.693417,-0.606731,-0.699120,-0.739062,-0.755721,-0.763586,-0.767745,-0.773153,-0.772815,-0.777523,-0.776993,-0.777031,-0.774465,-0.764524,-0.762334,-0.755097,-0.715094,-0.609565
-0.709679,-0.744625,-0.763974,-0.755197,-0.763423,-0.767732,-0.762436,-0.764369,-0.763842,-0.768668,-0.767217,-0.762735,-0.750909,-0.743993,-0.688829,-0.605163,-0.700914,-0.743770,-0.753890,-0.755506,-0.765313,-0.772936,-0.769844,-0.774202,-0.772437,-0.772983,-0.771778,-0.761783,-0.755190,-0.753720,-0.715941,-0.622121
-0.726603,-0.753395,-0.765395,-0.761540,-0.762935,-0.760344,-0.762494,-0.764646,-0.770602,-0.765207,-0.763407,-0.764909,-0.758368,-0.750804,-0.700352,-0.618164,-0.714777,-0.745889,-0.759750,-0.760004,-0.767580,-0.769256,-0.771752,-0.768328,-0.772330,-0.771205,-0.757682,-0.757546,-0.756194,-0.757883,-0.722961,-0.626203
-0.703064,-0.728194,-0.740612,-0.739927,-0.742990,-0.739638,-0.742262,-0.740701,-0.743537,-0.746565,-0.745251,-0.741578,-0.737129,-0.722401,-0.676563,-0.590719,-0.691899,-0.729863,-0.739435,-0.743435,-0.741687,-0.749119,-0.756756,-0.750673,-0.756403,-0.757622,-0.750908,-0.735440,-0.741846,-0.731236,-0.696740,-0.587199
-0.699698,-0.740724,-0.759245,-0.744028,-0.756560,-0.761006,-0.756716,-0.755702,-0.764800,-0.761910,-0.763640,-0.753663,-0.740226,-0.736846,-0.672405,-0.575340,-0.692712,-0.735622,-0.745530,-0.748723,-0.753345,-0.762488,-0.756549,-0.763505,-0.759688,-0.756760,-0.755769,-0.738814,-0.741848,-0.740717,-0.695515,-0.592806
-0.690173,-0.728453,-0.746611,-0.748448,-0.750974,-0.747591,-0.746649,-0.741717,-0.759478,-0.758510,-0.754134,-0.757464,-0.744554,-0.732095,-0.662967,-0.559645,-0.674834,-0.730910,-0.746763,-0.747950,-0.749496,-0.761045,-0.760009,-0.758751,-0.762745,-0.759929,-0.749503,-0.748476,-0.745402,-0.743165,-0.694208,-0.587085
-0.726641,-0.753686,-0.763856,-0.766226,-0.774592,-0.771616,-0.771964,-0.769403,-0.775493,-0.776343,-0.776216,-0.778420,-0.768349,-0.762313,-0.706760,-0.616801,-0.712847,-0.749540,-0.763709,-0.771858,-0.773124,-0.778374,-0.778585,-0.779316,-0.781654,-0.779962,-0.778776,-0.768579,-0.769651,-0.768552,-0.731504,-0.634510
